3495.35	98.9474
3494.08	85.2632
3492.81	113.526
3491.53	112.421
3490.26	124
3488.99	129.842
3487.71	107.895
3486.44	129.368
3485.17	141.789
3483.89	128.947
3482.62	127.474
3481.34	141.895
3480.06	130.526
3478.79	124.895
3477.51	148.421
3476.24	133.895
3474.96	146.789
3473.68	148.789
3472.4	144.526
3471.13	153.316
3469.85	147.579
3468.57	140.053
3467.29	164.474
3466.01	151.737
3464.73	171.105
3463.45	165.474
3462.17	175.842
3460.89	174.632
3459.61	190.053
3458.33	177.211
3457.04	187.263
3455.76	191.316
3454.48	196.684
3453.2	194.421
3451.91	184.789
3450.63	193.316
3449.35	205.368
3448.06	207.053
3446.78	230
3445.49	213.789
3444.21	213.263
3442.92	230.158
3441.64	210.895
3440.35	217.368
3439.07	228.316
3437.78	222.526
3436.49	222.632
3435.2	240.316
3433.92	230.632
3432.63	243
3431.34	228.368
3430.05	223.947
3428.76	260.579
3427.47	224
3426.18	247.211
3424.89	264.579
3423.6	268.632
3422.31	255.053
3421.02	251.895
3419.73	230.211
3418.44	265.526
3417.14	254.421
3415.85	245.263
3414.56	258.368
3413.27	268.263
3411.97	260.158
3410.68	262.421
3409.39	269.474
3408.09	267.421
3406.8	267.211
3405.5	286.579
3404.2	281.737
3402.91	257.368
3401.61	285.368
3400.32	290.895
3399.02	287.684
3397.72	276.211
3396.42	288.053
3395.13	306.684
3393.83	301.789
3392.53	278.474
3391.23	316.158
3389.93	307.947
3388.63	300.842
3387.33	329.21
3386.03	288.947
3384.73	330.421
3383.43	305.947
3382.13	310.053
3380.83	327.158
3379.53	322.105
3378.22	312.474
3376.92	320.947
3375.62	321.263
3374.32	330.158
3373.01	320.263
3371.71	326.842
3370.4	335.421
3369.1	312.632
3367.79	346.842
3366.49	316.316
3365.18	350.053
3363.88	320.895
3362.57	334.684
3361.26	333.053
3359.96	332.421
3358.65	353.684
3357.34	347.053
3356.03	346.947
3354.73	330.895
3353.42	339.684
3352.11	338.895
3350.8	373.895
3349.49	357.474
3348.18	364.421
3346.87	354.368
3345.56	371.368
3344.25	349.632
3342.93	382.684
3341.62	385.316
3340.31	376.579
3339	366
3337.69	377.053
3336.37	380.158
3335.06	390.158
3333.74	398.526
3332.43	383.789
3331.12	402.737
3329.8	400.737
3328.49	404.895
3327.17	379.895
3325.86	412.632
3324.54	420.211
3323.22	394.684
3321.91	399.526
3320.59	422.632
3319.27	395.526
3317.95	394.263
3316.63	413.737
3315.32	384.053
3314	424.211
3312.68	409
3311.36	405.842
3310.04	401.421
3308.72	400.895
3307.4	419.368
3306.08	394.474
3304.75	408.632
3303.43	409.263
3302.11	428.684
3300.79	420.316
3299.47	423.316
3298.14	434.789
3296.82	461.632
3295.5	444.632
3294.17	451.474
3292.85	449.053
3291.52	473.474
3290.2	469.947
3288.87	507.105
3287.55	499.684
3286.22	493.789
3284.89	514.105
3283.57	545.895
3282.24	559.211
3280.91	559.684
3279.58	573.211
3278.26	570.789
3276.93	625.053
3275.6	618.158
3274.27	661.053
3272.94	672.211
3271.61	682.263
3270.28	708.368
3268.95	733.053
3267.62	784.263
3266.29	767.895
3264.96	790.158
3263.62	820.684
3262.29	842.158
3260.96	871.368
3259.63	884.474
3258.29	913.737
3256.96	909.368
3255.62	935.105
3254.29	948.474
3252.95	971.579
3251.62	986.158
3250.28	1003.79
3248.95	1018.63
3247.61	1026.21
3246.28	1040.42
3244.94	1050.53
3243.6	1036.26
3242.26	1071.53
3240.93	1059.58
3239.59	1085.63
3238.25	1069.11
3236.91	1083.68
3235.57	1076.37
3234.23	1092.32
3232.89	1090.58
3231.55	1125.37
3230.21	1091.79
3228.87	1118.63
3227.53	1117.11
3226.19	1102.26
3224.85	1121.21
3223.5	1125
3222.16	1105.05
3220.82	1131.05
3219.47	1157.21
3218.13	1118.79
3216.79	1162
3215.44	1159.53
3214.1	1145
3212.75	1144.58
3211.41	1158.89
3210.06	1169.84
3208.71	1150.74
3207.37	1174.47
3206.02	1165.53
3204.67	1205.58
3203.33	1195.84
3201.98	1184.11
3200.63	1203.79
3199.28	1220.58
3197.93	1221.16
3196.58	1241.63
3195.23	1237.89
3193.88	1235
3192.53	1258.16
3191.18	1253.42
3189.83	1255.26
3188.48	1276.11
3187.13	1285.47
3185.78	1281.95
3184.42	1307.84
3183.07	1303.05
3181.72	1302.16
3180.36	1332.11
3179.01	1334.05
3177.66	1352.53
3176.3	1345.47
3174.95	1359.26
3173.59	1365.47
3172.24	1384.53
3170.88	1374.79
3169.52	1386.42
3168.17	1404.95
3166.81	1395.37
3165.45	1405.89
3164.1	1428.89
3162.74	1433.16
3161.38	1454.63
3160.02	1462.05
3158.66	1464.37
3157.3	1473.89
3155.94	1485.89
3154.58	1495.58
3153.22	1498.26
3151.86	1504.68
3150.5	1509.79
3149.14	1528.47
3147.78	1538.32
3146.41	1545.11
3145.05	1520.89
3143.69	1536.74
3142.32	1566.84
3140.96	1555.21
3139.6	1576.42
3138.23	1560.21
3136.87	1582.05
3135.5	1576.21
3134.14	1569.26
3132.77	1583.16
3131.41	1594.32
3130.04	1589.42
3128.67	1590.32
3127.31	1601.79
3125.94	1616.05
3124.57	1599.74
3123.2	1605.47
3121.83	1622.11
3120.47	1617.95
3119.1	1630.74
3117.73	1608.32
3116.36	1631.84
3114.99	1642.16
3113.61	1633.84
3112.24	1638.11
3110.87	1655.32
3109.5	1666.11
3108.13	1639.47
3106.76	1669.47
3105.38	1656.37
3104.01	1666.84
3102.64	1670.16
3101.26	1688.89
3099.89	1661.05
3098.51	1662.79
3097.14	1677.53
3095.76	1687.58
3094.39	1685.74
3093.01	1704.95
3091.64	1708.58
3090.26	1703.11
3088.88	1708.84
3087.5	1708.58
3086.13	1709.79
3084.75	1721.89
3083.37	1720.21
3081.99	1733.53
3080.61	1737.95
3079.23	1746.79
3077.85	1747.26
3076.47	1731.32
3075.09	1760
3073.71	1768.37
3072.33	1737.32
3070.95	1763.79
3069.57	1765.11
3068.18	1781.16
3066.8	1770.84
3065.42	1776.95
3064.04	1779.95
3062.65	1772.32
3061.27	1780.11
3059.88	1790.05
3058.5	1779.32
3057.11	1796.95
3055.73	1767.79
3054.34	1777.68
3052.96	1762.63
3051.57	1784.26
3050.18	1788.53
3048.8	1795.79
3047.41	1801.53
3046.02	1804.68
3044.63	1783.32
3043.24	1801
3041.85	1798.32
3040.46	1779.11
3039.07	1798.53
3037.68	1813.53
3036.29	1811.26
3034.9	1800.11
3033.51	1810.79
3032.12	1817.89
3030.73	1802.32
3029.34	1826.42
3027.94	1823
3026.55	1840.42
3025.16	1835.11
3023.76	1832.63
3022.37	1820.89
3020.97	1862.84
3019.58	1846.37
3018.18	1863.79
3016.79	1845
3015.39	1884.42
3014	1887.68
3012.6	1887.47
3011.2	1897.21
3009.81	1914.95
3008.41	1902.79
3007.01	1911.11
3005.61	1905.26
3004.21	1925.47
3002.81	1935.58
3001.41	1924.42
3000.01	1956.26
2998.61	1954.11
2997.21	1980.95
2995.81	1953.47
2994.41	1945.63
2993.01	1991.53
2991.61	1977.11
2990.21	1979.53
2988.8	1971.79
2987.4	2002.37
2986	1983.21
2984.59	2016.42
2983.19	2004.63
2981.78	2013.63
2980.38	1996.68
2978.97	2008.42
2977.57	2028.74
2976.16	2012.79
2974.76	2029.05
2973.35	2067.95
2971.94	2048.89
2970.54	2026.42
2969.13	2045.79
2967.72	2050.58
2966.31	2064.26
2964.9	2063.84
2963.49	2061.74
2962.08	2075.37
2960.67	2091.79
2959.26	2080.58
2957.85	2078.79
2956.44	2071.89
2955.03	2069.79
2953.62	2076.79
2952.21	2080.21
2950.8	2085.79
2949.38	2074.58
2947.97	2084.95
2946.56	2102.37
2945.14	2073.58
2943.73	2087.1
2942.31	2092
2940.9	2098.21
2939.48	2076.37
2938.07	2087.26
2936.65	2095.42
2935.24	2092
2933.82	2096.16
2932.4	2100.42
2930.98	2082.32
2929.57	2104.11
2928.15	2100.32
2926.73	2105.16
2925.31	2109.53
2923.89	2105.26
2922.47	2124.32
2921.05	2111.68
2919.63	2115.21
2918.21	2104.95
2916.79	2083.05
2915.37	2113.79
2913.95	2119.74
2912.52	2112
2911.1	2105.37
2909.68	2127.16
2908.26	2110.89
2906.83	2136.37
2905.41	2116.11
2903.98	2146.16
2902.56	2130.26
2901.13	2135.63
2899.71	2133.26
2898.28	2160
2896.86	2163.58
2895.43	2155.74
2894	2168.11
2892.58	2176.32
2891.15	2156.16
2889.72	2122.47
2888.29	2151.11
2886.86	2159.68
2885.44	2134.63
2884.01	2145.68
2882.58	2146.68
2881.15	2150.63
2879.72	2135.32
2878.28	2166
2876.85	2168.68
2875.42	2166.53
2873.99	2183.63
2872.56	2156.16
2871.12	2166.37
2869.69	2174.63
2868.26	2183.63
2866.82	2173.37
2865.39	2165.11
2863.96	2146.63
2862.52	2193.53
2861.09	2154.32
2859.65	2154.37
2858.21	2141.26
2856.78	2181.53
2855.34	2170.68
2853.9	2159.84
2852.47	2147.95
2851.03	2141.11
2849.59	2163.42
2848.15	2127.89
2846.71	2146.32
2845.27	2163.79
2843.83	2152.53
2842.39	2128.53
2840.95	2133.89
2839.51	2122.89
2838.07	2137.9
2836.63	2131.74
2835.19	2128.21
2833.75	2098.32
2832.3	2113.1
2830.86	2129
2829.42	2113.05
2827.97	2129.32
2826.53	2104.21
2825.09	2127.63
2823.64	2121.58
2822.2	2133.26
2820.75	2111.84
2819.3	2116.05
2817.86	2093.53
2816.41	2124.05
2814.96	2094.37
2813.52	2091.63
2812.07	2096.58
2810.62	2110.47
2809.17	2095.63
2807.72	2100.32
2806.27	2102.84
2804.82	2120.63
2803.38	2131.63
2801.92	2091.47
2800.47	2137.89
2799.02	2135.05
2797.57	2116.53
2796.12	2129.58
2794.67	2128.47
2793.22	2097.32
2791.76	2118.37
2790.31	2115.16
2788.86	2116.79
2787.4	2129.95
2785.95	2125.1
2784.49	2127
2783.04	2131.58
2781.58	2141
2780.13	2129.63
2778.67	2141.58
2777.21	2137.68
2775.76	2112.53
2774.3	2125.26
2772.84	2136.11
2771.38	2118.16
2769.92	2112.11
2768.47	2111.79
2767.01	2110.58
2765.55	2104.05
2764.09	2125.47
2762.63	2103.63
2761.17	2115.11
2759.71	2107.53
2758.24	2097.21
2756.78	2100.37
2755.32	2082.84
2753.86	2088.42
2752.39	2097.37
2750.93	2074.63
2749.47	2093.26
2748	2088.79
2746.54	2089.42
2745.07	2086.21
2743.61	2092.47
2742.14	2088.68
2740.68	2086.63
2739.21	2086.21
2737.75	2081.42
2736.28	2086.53
2734.81	2071.42
2733.34	2079.32
2731.88	2079.37
2730.41	2075.84
2728.94	2062.68
2727.47	2071.95
2726	2084.68
2724.53	2050.16
2723.06	2049.11
2721.59	2041.58
2720.12	2050.32
2718.65	2045.32
2717.17	2029.37
2715.7	2014.05
2714.23	2030.95
2712.76	2034.21
2711.28	2020
2709.81	2024.84
2708.34	2044.47
2706.86	2026.21
2705.39	2011.74
2703.91	1999.68
2702.44	2006.84
2700.96	1982.26
2699.48	1988.89
2698.01	2003
2696.53	1986.26
2695.05	1978.21
2693.58	1950.95
2692.1	1950.47
2690.62	1990.16
2689.14	1989.26
2687.66	1947.84
2686.18	1987.47
2684.7	1970.79
2683.22	1993.11
2681.74	1965.32
2680.26	1956.26
2678.78	1952.42
2677.3	1969.32
2675.81	1971.42
2674.33	1955.42
2672.85	1953.26
2671.36	1975.68
2669.88	1952.26
2668.4	1944.53
2666.91	1968.11
2665.43	1938.89
2663.94	1926.74
2662.46	1949.05
2660.97	1925.74
2659.48	1938.89
2658	1950.16
2656.51	1926.95
2655.02	1946.26
2653.53	1936.89
2652.05	1924.47
2650.56	1919.68
2649.07	1935
2647.58	1936.63
2646.09	1910.84
2644.6	1914.63
2643.11	1927.68
2641.62	1907.21
2640.13	1923.47
2638.63	1884.58
2637.14	1902.42
2635.65	1886
2634.16	1891.47
2632.66	1883.58
2631.17	1892.05
2629.68	1866.47
2628.18	1852.79
2626.69	1866.42
2625.19	1861.79
2623.7	1865.84
2622.2	1858.68
2620.7	1866.32
2619.21	1855.63
2617.71	1838.05
2616.21	1842.37
2614.72	1847.53
2613.22	1834.68
2611.72	1833.95
2610.22	1850.37
2608.72	1835.37
2607.22	1791.53
2605.72	1823.84
2604.22	1817.68
2602.72	1808.37
2601.22	1805.68
2599.72	1803.42
2598.22	1807.84
2596.71	1801.58
2595.21	1810.16
2593.71	1784.32
2592.2	1798.58
2590.7	1780.47
2589.2	1798.63
2587.69	1789.21
2586.19	1767.95
2584.68	1785.68
2583.18	1803.79
2581.67	1773.58
2580.16	1781
2578.66	1776.84
2577.15	1768.58
2575.64	1770.11
2574.13	1771.79
2572.63	1788.58
2571.12	1756.05
2569.61	1762.79
2568.1	1744.95
2566.59	1739.16
2565.08	1746.63
2563.57	1738.37
2562.06	1740.05
2560.55	1733.68
2559.03	1732.63
2557.52	1723.63
2556.01	1735.53
2554.5	1717.26
2552.98	1721.05
2551.47	1730.05
2549.96	1703.95
2548.44	1695.16
2546.93	1689.32
2545.41	1697.05
2543.9	1695.74
2542.38	1695.95
2540.86	1663
2539.35	1679.47
2537.83	1638.47
2536.31	1665.68
2534.79	1668.74
2533.28	1619.11
2531.76	1639.53
2530.24	1627.37
2528.72	1653.21
2527.2	1618.16
2525.68	1630.84
2524.16	1616.42
2522.64	1623.37
2521.12	1597.05
2519.59	1599.95
2518.07	1611.37
2516.55	1593.37
2515.03	1628.32
2513.5	1592.53
2511.98	1575.42
2510.46	1567.58
2508.93	1572.84
2507.41	1568.47
2505.88	1575.63
2504.36	1549.58
2502.83	1562.11
2501.3	1561.16
2499.78	1555.05
2498.25	1549.89
2496.72	1551
2495.2	1539
2493.67	1494.68
2492.14	1503.95
2490.61	1524.79
2489.08	1515.74
2487.55	1475.63
2486.02	1500.37
2484.49	1501.53
2482.96	1490.68
2481.43	1463.74
2479.9	1459.84
2478.36	1478.26
2476.83	1453
2475.3	1449.47
2473.77	1448.11
2472.23	1430.05
2470.7	1435.32
2469.16	1437.95
2467.63	1454.32
2466.09	1452.58
2464.56	1429.32
2463.02	1432.37
2461.49	1442.58
2459.95	1409.68
2458.41	1417.89
2456.87	1447.74
2455.34	1432.11
2453.8	1416.42
2452.26	1417.53
2450.72	1420.89
2449.18	1420.79
2447.64	1385.21
2446.1	1409.74
2444.56	1408
2443.02	1376.21
2441.48	1374.63
2439.94	1390.89
2438.39	1405.68
2436.85	1411.95
2435.31	1389.58
2433.77	1358.11
2432.22	1400.79
2430.68	1384.68
2429.13	1369.32
2427.59	1377.42
2426.04	1367.89
2424.5	1357.53
2422.95	1365.16
2421.41	1381.74
2419.86	1363.16
2418.31	1354.42
2416.76	1336.68
2415.22	1356.32
2413.67	1358.42
2412.12	1362.53
2410.57	1331
2409.02	1358.84
2407.47	1331.84
2405.92	1353.11
2404.37	1342.32
2402.82	1323.68
2401.27	1318.63
2399.71	1327.05
2398.16	1321.37
2396.61	1311.42
2395.06	1302.11
2393.5	1324.89
2391.95	1299.58
2390.4	1291.89
2388.84	1303.05
2387.29	1308.11
2385.73	1295.32
2384.17	1295.95
2382.62	1299.21
2381.06	1309.21
2379.51	1302.95
2377.95	1267.21
2376.39	1272
2374.83	1270.37
2373.27	1258.79
2371.72	1269.21
2370.16	1253
2368.6	1265.47
2367.04	1242.74
2365.48	1253.89
2363.92	1248.89
2362.35	1238.74
2360.79	1235.84
2359.23	1253.74
2357.67	1241.58
2356.1	1225.63
2354.54	1241.58
2352.98	1250.42
2351.41	1237.63
2349.85	1204.68
2348.29	1218.11
2346.72	1221.84
2345.15	1225.16
2343.59	1197.05
2342.02	1194.47
2340.46	1215.74
2338.89	1212.42
2337.32	1195.05
2335.75	1184.63
2334.18	1217.74
2332.62	1231.74
2331.05	1234.63
2329.48	1207.68
2327.91	1224.53
2326.34	1197.37
2324.77	1210.58
2323.2	1199.79
2321.63	1171.47
2320.05	1190.21
2318.48	1171.58
2316.91	1183.32
2315.34	1188.58
2313.76	1168.26
2312.19	1144.95
2310.61	1172.68
2309.04	1153.11
2307.46	1172.47
2305.89	1163.05
2304.31	1169.26
2302.74	1141.89
2301.16	1138.68
2299.58	1148.79
2298.01	1130.32
2296.43	1155.89
2294.85	1137.42
2293.27	1147.95
2291.69	1126.89
2290.11	1123.58
2288.53	1122.16
2286.95	1131.32
2285.37	1121.53
2283.79	1106.89
2282.21	1109.11
2280.63	1105.26
2279.05	1078.68
2277.47	1100.26
2275.88	1118.37
2274.3	1091.79
2272.72	1072.26
2271.13	1084.05
2269.55	1077.11
2267.96	1061.95
2266.38	1070.42
2264.79	1083.58
2263.21	1081.84
2261.62	1055.89
2260.03	1048.58
2258.44	1053.47
2256.86	1056.95
2255.27	1035.63
2253.68	1043.16
2252.09	1032.32
2250.5	1039.63
2248.91	1023
2247.32	1022.84
2245.73	1022.74
2244.14	1024.79
2242.55	1043.37
2240.96	1043.74
2239.37	1024.21
2237.77	1017.89
2236.18	1010.05
2234.59	985.947
2232.99	995.105
2231.4	1019.47
2229.81	1007.37
2228.21	989.211
2226.62	999.684
2225.02	998.316
2223.42	1000.11
2221.83	1009
2220.23	1007.63
2218.63	995.684
2217.04	965.474
2215.44	974.105
2213.84	982.842
2212.24	977.579
2210.64	974.053
2209.04	969.579
2207.44	958.105
2205.84	940.632
2204.24	968.579
2202.64	957.263
2201.04	974.263
2199.44	960
2197.83	953.789
2196.23	949.053
2194.63	944.895
2193.03	950.158
2191.42	968.368
2189.82	953.053
2188.21	950.474
2186.61	954.158
2185	950.474
2183.4	951.632
2181.79	927.632
2180.18	958.789
2178.57	942.474
2176.97	936.895
2175.36	927.632
2173.75	920.263
2172.14	926.053
2170.53	921.947
2168.92	925.316
2167.31	911.737
2165.7	900.684
2164.09	909.737
2162.48	928.263
2160.87	917.842
2159.26	899.053
2157.65	904.368
2156.03	883.684
2154.42	880.526
2152.81	917.474
2151.19	880.474
2149.58	901.053
2147.96	863.526
2146.35	862.737
2144.73	887.263
2143.12	872.684
2141.5	882.632
2139.88	882.368
2138.26	880.632
2136.65	885
2135.03	864.105
2133.41	855.579
2131.79	838.105
2130.17	854.579
2128.55	858.526
2126.93	837.421
2125.31	856.579
2123.69	824.895
2122.07	849.368
2120.45	842.105
2118.83	846.263
2117.2	833.526
2115.58	840.105
2113.96	828.053
2112.33	838.737
2110.71	843.158
2109.08	833.579
2107.46	844.158
2105.83	846.737
2104.21	822.737
2102.58	818.474
2100.96	823.579
2099.33	817.316
2097.7	836
2096.07	835.947
2094.45	812.421
2092.82	837.947
2091.19	811.105
2089.56	831.474
2087.93	820.895
2086.3	825.526
2084.67	833.895
2083.04	815.895
2081.41	819.053
2079.77	795.684
2078.14	807.474
2076.51	812.842
2074.88	793
2073.24	810.474
2071.61	803.842
2069.97	798.789
2068.34	797.579
2066.7	809.263
2065.07	807.105
2063.43	799.316
2061.8	801.684
2060.16	788.579
2058.52	804.684
2056.89	782.263
2055.25	801.421
2053.61	789.737
2051.97	777.474
2050.33	773.105
2048.69	787.21
2047.05	788.158
2045.41	775.895
2043.77	764
2042.13	790.632
2040.49	786.632
2038.85	768.421
2037.2	750.684
2035.56	763.947
2033.92	780
2032.27	732.947
2030.63	757.263
2028.99	773.579
2027.34	768.895
2025.7	751.632
2024.05	753.263
2022.4	747.737
2020.76	755.211
2019.11	750.632
2017.46	749.842
2015.82	740.947
2014.17	761
2012.52	733.842
2010.87	728.316
2009.22	737.263
2007.57	734.211
2005.92	735.21
2004.27	748.632
2002.62	714.211
2000.97	730.947
1999.31	720
1997.66	739.632
1996.01	710.579
1994.36	718.21
1992.7	699.316
1991.05	723.737
1989.39	705.947
1987.74	717.105
1986.09	722.947
1984.43	732
1982.77	698.737
1981.12	704.368
1979.46	700.789
1977.8	708.263
1976.15	714.316
1974.49	686.684
1972.83	706.211
1971.17	696.947
1969.51	705.632
1967.85	692.684
1966.19	684.895
1964.53	704.789
1962.87	681.421
1961.21	683.421
1959.55	687.211
1957.88	687.579
1956.22	699.947
1954.56	683.632
1952.9	694.789
1951.23	701.526
1949.57	700.526
1947.9	694
1946.24	687.684
1944.57	695.158
1942.91	674.474
1941.24	676.79
1939.57	676.789
1937.91	677
1936.24	659.947
1934.57	664.526
1932.9	674.947
1931.23	683.684
1929.56	658.579
1927.89	657
1926.23	664.842
1924.55	645.368
1922.88	658.895
1921.21	649.368
1919.54	635.421
1917.87	643
1916.2	659
1914.52	642.474
1912.85	647.316
1911.18	637.421
1909.5	655.368
1907.83	622.895
1906.15	632.632
1904.48	647.842
1902.8	631
1901.13	637.211
1899.45	631.526
1897.77	661.263
1896.09	625.579
1894.42	611.368
1892.74	625.316
1891.06	620.474
1889.38	627.421
1887.7	624.631
1886.02	641.684
1884.34	625.158
1882.66	630.421
1880.98	606.789
1879.3	610.632
1877.61	607.474
1875.93	615.158
1874.25	608.053
1872.56	606.105
1870.88	587.263
1869.2	612.737
1867.51	623.632
1865.83	613.368
1864.14	608.842
1862.46	605.789
1860.77	615.526
1859.08	600.368
1857.4	593.105
1855.71	616.789
1854.02	597.421
1852.33	587.263
1850.64	600.158
1848.95	608.895
1847.26	593.947
1845.57	591.789
1843.88	595.895
1842.19	586.579
1840.5	597.895
1838.81	607.842
1837.12	589.105
1835.43	601.789
1833.73	580.789
1832.04	585.684
1830.34	592.053
1828.65	595.789
1826.96	580.368
1825.26	590.526
1823.57	594.368
1821.87	582.368
1820.17	580.053
1818.48	573.368
1816.78	590.947
1815.08	565.632
1813.38	577.684
1811.69	558.737
1809.99	569.368
1808.29	559.895
1806.59	574.421
1804.89	564.526
1803.19	570.579
1801.49	576.947
1799.78	563.579
1798.08	579.895
1796.38	576.737
1794.68	571.737
1792.97	547.421
1791.27	588.158
1789.57	564.368
1787.86	585.842
1786.16	558.053
1784.45	575.684
1782.75	583.474
1781.04	575.842
1779.34	572.842
1777.63	569.79
1775.92	583.158
1774.21	570.316
1772.51	575.158
1770.8	564.737
1769.09	563.474
1767.38	576.211
1765.67	587.632
1763.96	588.947
1762.25	582.368
1760.54	557.158
1758.82	564.053
1757.11	560.632
1755.4	556.895
1753.69	568.105
1751.97	581.105
1750.26	545.421
1748.55	573.842
1746.83	561.053
1745.12	551.789
1743.4	568
1741.69	548.526
1739.97	552.368
1738.25	577
1736.54	541.316
1734.82	561.789
1733.1	570.526
1731.38	553.105
1729.66	566.421
1727.94	551.895
1726.22	553.789
1724.5	530.211
1722.78	563.526
1721.06	544.526
1719.34	535.316
1717.62	549.105
1715.9	546.684
1714.18	545.579
1712.45	552.947
1710.73	571.474
1709	563.842
1707.28	549.263
1705.56	549.158
1703.83	538.105
1702.11	542.579
1700.38	547
1698.65	560.263
1696.93	531.737
1695.2	533.895
1693.47	532.211
1691.74	523.632
1690.01	537.895
1688.28	546.632
1686.55	538.895
1684.83	553.053
1683.09	535.053
1681.36	550.263
1679.63	558.316
1677.9	552.158
1676.17	552.737
1674.44	541.684
1672.7	545.053
1670.97	557.842
1669.24	536.737
1667.5	545.895
1665.77	542.737
1664.03	539.737
1662.3	536.421
1660.56	543.842
1658.83	540.789
1657.09	526.316
1655.35	525
1653.61	554.158
1651.88	530.053
1650.14	541.474
1648.4	535.263
1646.66	549.053
1644.92	531.368
1643.18	546.579
1641.44	527.263
1639.7	529.211
1637.96	539.632
1636.22	523.895
1634.47	532.579
1632.73	532.105
1630.99	538.053
1629.24	530.158
1627.5	542
1625.75	535.316
1624.01	537.789
1622.26	518.737
1620.52	543.895
1618.77	539.053
1617.03	544.737
1615.28	550.632
1613.53	526.684
1611.78	543.158
1610.04	542.211
1608.29	518.053
1606.54	522.684
1604.79	550.211
1603.04	528.053
1601.29	534.421
1599.54	541.368
1597.78	544.053
1596.03	540.158
1594.28	539.632
1592.53	510.053
1590.77	518.263
1589.02	529
1587.27	523.789
1585.51	518.737
1583.76	533.579
1582	509.632
1580.25	501.158
1578.49	515.316
1576.73	519.789
1574.98	512.421
1573.22	512.895
1571.46	507.579
1569.7	525.368
1567.94	510.895
1566.19	506.211
1564.43	528.632
1562.67	512.105
1560.91	506.158
1559.14	519.947
1557.38	512.105
1555.62	525.947
1553.86	509.158
1552.1	563.316
1550.33	537.053
1548.57	498.526
1546.81	500.526
1545.04	522.895
1543.28	508.842
1541.51	507.737
1539.75	519.947
1537.98	506.789
1536.21	517.316
1534.45	510.105
1532.68	516.632
1530.91	511.263
1529.14	515.368
1527.37	506.105
1525.6	533.474
1523.83	498.632
1522.06	533.526
1520.29	517.474
1518.52	540.842
1516.75	526.421
1514.98	519.842
1513.21	521.368
1511.43	534.158
1509.66	531.579
1507.89	514.789
1506.11	522.737
1504.34	521.79
1502.57	527.526
1500.79	518.158
1499.01	539.632
1497.24	526.842
1495.46	528.895
1493.68	511.368
1491.91	538.368
1490.13	523.368
1488.35	522.526
1486.57	528.421
1484.79	549.947
1483.01	545.368
1481.23	536.105
1479.45	501.789
1477.67	523.316
1475.89	526
1474.11	529.263
1472.32	530.526
1470.54	507.947
1468.76	504.632
1466.98	516.579
1465.19	515.105
1463.41	506.421
1461.62	513.105
1459.84	501.737
1458.05	520.158
1456.26	501.579
1454.48	535.947
1452.69	511.316
1450.9	506.526
1449.11	511.737
1447.33	500.579
1445.54	531.368
1443.75	506.263
1441.96	519.895
1440.17	506.632
1438.38	514.526
1436.58	529.737
1434.79	511.737
1433	539.579
1431.21	502.632
1429.42	520.316
1427.62	529.684
1425.83	532.789
1424.03	511.053
1422.24	516.211
1420.44	529.263
1418.65	529.895
1416.85	513.421
1415.06	516
1413.26	522.842
1411.46	515.474
1409.66	505.316
1407.87	507.632
1406.07	514.421
1404.27	532.105
1402.47	507.632
1400.67	514.211
1398.87	513.263
1397.07	526.842
1395.27	521.737
1393.46	509.684
1391.66	532.526
1389.86	502.632
1388.06	509.316
1386.25	516.421
1384.45	523.263
1382.64	501.368
1380.84	496.421
1379.03	522.211
1377.23	524.421
1375.42	511.526
1373.62	513.263
1371.81	524.789
1370	512
1368.19	523.053
1366.38	511
1364.58	514.842
1362.77	501.421
1360.96	543.632
1359.15	525.632
1357.33	511.632
1355.52	508.053
1353.71	522.895
1351.9	524.632
1350.09	507.684
1348.27	523.842
1346.46	493.895
1344.65	521.526
1342.83	528.947
1341.02	532.105
1339.2	513.053
1337.39	520.369
1335.57	520.737
1333.76	531.737
1331.94	528.947
1330.12	530.316
1328.3	517.368
1326.48	510.368
1324.67	532.579
1322.85	540.211
1321.03	519.526
1319.21	534.158
1317.39	511.632
1315.57	517.895
1313.74	521.421
1311.92	514.842
1310.1	527.421
1308.28	526.632
1306.45	532.947
1304.63	522.632
1302.81	532.211
1300.98	505.526
1299.16	511.789
1297.33	535.474
1295.51	515.316
1293.68	502.947
1291.85	514.316
1290.02	512.684
1288.2	492.789
1286.37	504.579
1284.54	527.737
1282.71	524.947
1280.88	508.947
1279.05	495.158
1277.22	506.632
1275.39	519.211
1273.56	529.053
1271.73	506.053
1269.89	523.526
1268.06	511.316
1266.23	524.684
1264.4	505.842
1262.56	518.632
1260.73	522.211
1258.89	538.632
1257.06	522.211
1255.22	517.105
1253.38	523.684
1251.55	509.895
1249.71	521.421
1247.87	518.21
1246.03	524.21
1244.2	527.579
1242.36	539.421
1240.52	511
1238.68	525.737
1236.84	518.421
1235	524.158
1233.16	511.368
1231.31	526.737
1229.47	536.789
1227.63	526.526
1225.79	523.474
1223.94	515.211
1222.1	504.158
1220.25	528.895
1218.41	534.263
1216.56	510.737
1214.72	516.579
1212.87	516.263
1211.02	538.737
1209.18	517.684
1207.33	528
1205.48	550.474
1203.63	505.421
1201.78	524.895
1199.93	525.316
1198.08	519.579
1196.23	516.895
1194.38	535.105
1192.53	507.842
1190.68	539.684
1188.83	527
1186.98	516.105
1185.12	525.842
1183.27	529.842
1181.41	521.895
1179.56	527.474
1177.71	523.105
1175.85	534.053
1173.99	518.316
1172.14	515.632
1170.28	509.895
1168.42	552.632
1166.57	524.579
1164.71	525.105
1162.85	529.211
1160.99	541.684
1159.13	547.579
1157.27	549.263
1155.41	545.737
1153.55	545.895
1151.69	545.263
1149.83	547.895
1147.97	541.105
1146.1	542.105
1144.24	550
1142.38	526.684
1140.51	541.632
1138.65	546.474
1136.78	538.789
1134.92	542.684
1133.05	547.211
1131.18	553.474
1129.32	558.263
1127.45	552
1125.58	528.316
1123.71	532.263
1121.85	533.211
1119.98	526.053
1118.11	538.263
1116.24	510.632
1114.37	535.579
1112.5	539.158
1110.62	559.053
1108.75	517.842
1106.88	526.263
1105.01	552.789
1103.13	536.263
1101.26	527.105
1099.39	535.842
1097.51	529.789
1095.64	545.421
1093.76	535.632
1091.89	543.579
1090.01	550.316
1088.13	537.789
1086.25	549.947
1084.38	566.105
1082.5	547
1080.62	549.842
1078.74	558.842
1076.86	568.526
1074.98	537.158
1073.1	566
1071.22	563.895
1069.34	542.316
1067.45	573.368
1065.57	556.053
1063.69	566.684
1061.81	564.526
1059.92	564.526
1058.04	543.895
1056.15	576.789
1054.27	574.158
1052.38	579.789
1050.5	550.895
1048.61	591
1046.72	578.684
1044.83	592.368
1042.95	576.632
1041.06	567.368
1039.17	584.526
1037.28	582.421
1035.39	596.316
1033.5	595.526
1031.61	565.737
1029.72	591.316
1027.82	598.632
1025.93	595.632
1024.04	585.053
1022.15	585.105
1020.25	602.895
1018.36	609.789
1016.46	602.053
1014.57	601.632
1012.67	613.737
1010.78	612.421
1008.88	622.316
1006.99	624.316
1005.09	652.211
1003.19	676
1001.29	708.316
999.393	779.579
997.494	900.842
995.595	1078.16
993.694	1211.68
991.793	1322.79
989.893	1257.63
987.991	1099.95
986.089	925.053
984.186	831.105
982.284	760.737
980.38	747.895
978.477	744.263
976.572	713.632
974.667	718.263
972.762	716.421
970.856	711.526
968.95	710.263
967.043	702.211
965.136	700
963.229	708.526
961.32	677.316
959.412	672
957.503	715.526
955.594	702.421
953.683	686.263
951.773	677.316
949.862	703.684
947.951	695.316
946.039	689.737
944.127	710.947
942.214	711.579
940.301	703.211
938.387	729.895
936.472	720.895
934.558	733.474
932.643	723.263
930.727	732.526
928.811	729.316
926.895	750.211
924.978	728.263
923.06	739.684
921.142	764.421
919.224	759
917.305	748
915.386	778.579
913.466	764.632
911.545	755.211
909.625	754.737
907.703	790.526
905.782	781
903.859	792.368
901.937	784.421
900.014	822.842
898.09	791.526
896.166	807.632
894.241	808.263
892.316	823.947
890.391	823
888.465	814.105
886.539	824.053
884.612	839.895
882.685	820.947
880.756	835.632
878.828	842.316
876.899	849.211
874.97	850.211
873.04	849.684
871.11	860.842
869.179	869.053
867.248	854.368
865.316	885.684
863.384	898.684
861.452	903.842
859.519	918.842
857.585	947.105
855.651	948.579
853.717	972.158
851.782	987.684
849.846	1016.21
847.91	1051.42
845.974	1065.05
844.037	1100.53
842.099	1163.16
840.162	1207.74
838.224	1255.58
836.284	1336.68
834.345	1407.21
832.406	1528.37
830.466	1661.95
828.525	1818.74
826.584	2031.11
824.642	2209.1
822.7	2417.79
820.757	2574.53
818.815	2600.79
816.871	2552.32
814.927	2418.68
812.982	2242.84
811.037	2072.95
809.092	1868.42
807.146	1704.26
805.2	1609.53
803.253	1481.32
801.306	1424.79
799.358	1333.53
797.41	1283.84
795.46	1246.79
793.511	1226.05
791.562	1160.11
789.611	1163
787.66	1170.37
785.709	1137.63
783.758	1115.53
781.806	1097.74
779.853	1081.42
777.9	1089.84
775.946	1083.47
773.992	1056.89
772.038	1040.11
770.083	1031.68
768.127	1026.58
766.171	1012.47
764.215	1016.32
762.258	993.158
760.3	998.632
758.342	977.158
756.385	978.947
754.425	998.737
752.466	973.316
750.506	991.105
748.546	972.632
746.586	998.737
744.624	991.053
742.662	998.947
740.7	994.947
738.737	1013.42
736.774	1012.95
734.81	1034.42
732.846	1037
730.881	1030.32
728.916	1026.11
726.951	1046.95
724.984	1052
723.018	1025.16
721.051	1028.89
719.084	1021.74
717.116	1021.53
715.147	1003.42
713.178	996.632
711.209	981.632
709.239	982
707.268	979.579
705.297	959.211
703.327	980.368
701.354	946.21
699.382	954.263
697.409	934.263
695.436	962.158
693.462	947.105
691.488	952.105
689.513	949.316
687.538	941.263
685.562	934.211
683.586	925.579
681.609	975.316
679.632	964.684
677.654	976.632
675.676	984.053
673.698	1019.89
671.718	1020.95
669.739	1042.74
667.759	1079.63
665.778	1112.26
663.797	1103.84
661.815	1116.89
659.834	1108.68
657.851	1093.05
655.868	1058.89
653.884	1016.79
651.9	1018.32
649.916	978.842
647.931	978
645.946	950.947
643.959	971.158
641.973	947.474
639.986	943.526
637.999	940.053
636.011	941.263
634.023	910.211
632.034	917.316
630.044	903.842
628.054	906.684
626.064	895.263
624.073	907.263
622.082	904.684
620.09	881.842
618.098	883.421
616.105	893.316
614.112	887.947
612.118	872.263
610.124	876.737
608.129	883
606.134	888.211
604.138	874.158
602.142	875.579
600.145	875.368
598.148	874
596.151	891.21
594.152	862.263
592.154	885.21
590.154	859.842
588.155	865.947
586.154	886
584.154	877.632
582.153	882.526
580.152	869.21
578.15	889
576.147	874.789
574.144	875.789
572.141	878.947
570.136	878.526
568.132	894.158
566.127	887.684
564.121	882.947
562.116	881.263
560.109	888.421
558.102	887
556.094	879.316
554.086	859.211
552.078	881.263
550.069	852.526
548.06	861.632
546.049	871.842
544.039	871.316
542.028	875.737
540.017	886.947
538.005	891.474
535.993	897.842
533.98	904.895
531.966	904.789
529.952	909.368
527.938	950.421
525.923	1051
523.907	1199.89
521.892	1407.95
519.876	1475.37
517.858	1310.68
515.841	1100.32
513.823	974.526
511.805	919.421
509.786	927.842
507.767	906.316
505.747	898.316
503.727	903.316
501.706	911.368
499.684	894.579
497.663	918.368
495.64	935.579
493.618	940.474
491.594	918.526
489.571	946.316
487.547	955.632
485.522	934.316
483.497	933.053
481.471	947.158
479.445	970.684
477.418	941.895
475.391	980.053
473.362	971.632
471.334	964.579
469.306	977.789
467.276	984.053
465.247	1000.95
463.216	994.316
461.186	991.263
459.154	967.053
457.122	1001.95
455.091	1009.42
453.058	1004.47
451.025	974.526
448.991	1007.11
446.957	986.684
444.922	990.895
442.887	992.632
440.851	982.421
438.814	990.632
436.778	1000.26
434.741	993.947
432.703	1020.89
430.665	1017.63
428.627	1033.84
426.587	1060.84
424.547	1060.47
422.507	1085.63
420.466	1100.32
418.425	1101.89
416.384	1130.58
414.341	1136.42
412.298	1146.63
410.256	1135.79
408.211	1133.37
406.167	1122.37
404.122	1116.89
402.078	1133.16
400.031	1110.95
397.986	1134.47
395.939	1146.95
393.892	1119.74
391.844	1141.53
389.796	1169.21
387.747	1206.11
385.698	1211.05
383.648	1266.32
381.597	1293.26
379.547	1350.63
377.495	1383.16
375.444	1373.79
373.392	1374.84
371.339	1348.16
369.286	1334.74
367.232	1323.11
365.178	1329
363.123	1310.16
361.068	1304.95
359.012	1290.42
356.956	1278.47
354.898	1244.21
352.841	1266.74
350.783	1254
348.726	1240.47
346.666	1272.47
344.607	1305
342.548	1349.95
340.487	1405.53
338.426	1439.16
336.365	1468.63
334.303	1473.53
332.241	1431.16
330.178	1373.95
328.115	1374.32
326.05	1338.21
323.986	1351.21
321.922	1356.89
319.856	1354.47
317.79	1377.37
315.724	1382.63
313.657	1394.84
311.59	1388.63
309.522	1406.47
307.454	1402.37
305.385	1424
303.315	1441
301.245	1467.16
299.175	1501.63
297.104	1573.74
295.032	1700.63
292.96	1796.95
290.888	1978.95
288.815	2096.32
286.741	2239.68
284.668	2358.95
282.593	2362.68
280.518	2369.89
278.443	2236.89
276.367	2099.63
274.29	1908
272.213	1774.63
270.135	1670.05
268.058	1570.21
265.979	1505.32
263.9	1468.63
261.82	1441.05
259.74	1421.47
257.66	1410.58
255.578	1423.16
253.497	1404.42
251.415	1428.26
249.331	1404.89
247.248	1410.68
245.165	1448.37
243.081	1475.32
240.997	1505.05
238.911	1499.26
236.826	1487.21
234.739	1487.05
232.653	1453.42
230.565	1422.53
228.477	1409.05
226.389	1408.84
224.3	1373.42
222.211	1363.47
220.121	1362.74
218.031	1388.11
215.94	1349.47
213.848	1343.47
211.757	1341.11
209.664	1321.37
207.572	1310.05
205.479	1337.47
203.384	1356.95
201.29	1363.89
199.195	1396.68
197.1	1387.26
195.003	1356.16
192.907	1314.05
190.81	1259.63
188.712	1217.68
186.615	1199.68
184.516	1193.68
182.417	1187.58
180.317	1168.47
178.217	1187.16
176.117	1177.58
174.016	1195.89
171.914	1232.26
169.812	1230.37
167.71	1240.68
165.606	1273.05
163.503	1336.53
161.398	1380.84
159.293	1494.89
157.188	1614.47
155.083	1764.74
152.976	1914.53
150.87	1961.68
148.763	1985.68
146.655	1940.37
144.546	1839.58
142.438	1739.79
140.328	1643.26
138.218	1551.95
136.108	1522
133.997	1585.74
131.886	1728.58
129.773	1864.42
127.661	1933.95
125.548	1978.79
123.435	1994.84
121.321	2082.95
119.207	2153.79
117.091	2165.95
114.975	2131.47
112.86	2102.16
110.743	2017.42
108.626	1860
106.508	1759.58
104.39	1680
102.272	1675.16
100.152	1700.42
98.0327	1669.89
95.9117	1683.68
93.791	1652.32
91.6705	1637.47
89.5484	1572.84
87.4255	1477.63
85.3029	1279.26
