##Temp./oC	Time/min	Mass/%	Gas Flow(purge1)/(ml/min)	Gas Flow(protective)/(ml/min)
25,208	0	100	20	20
25,19709	0,0505	99,99587	20	20
25,18225	0,10101	99,99173	20	20
25,16871	0,15151	99,98759	20	20
25,13637	0,20201	99,9843	20	20
25,13917	0,25252	99,97378	20	20
25,13612	0,30302	99,96781	20	20
25,13604	0,35352	99,95069	20	20
25,15427	0,40403	99,95718	20	20
25,21097	0,45453	99,95814	20	20
25,27029	0,50503	99,96418	20	20
25,33866	0,55554	99,94822	20	20
25,43774	0,60604	99,95641	20	20
25,54514	0,65654	99,94652	20	20
25,67734	0,70705	99,93774	20	20
25,84198	0,75755	99,94273	20	20
25,9856	0,80805	99,93432	20	20
26,16272	0,85856	99,9301	20	20
26,35029	0,90906	99,92522	20	20
26,57446	0,95956	99,93586	20	20
26,79434	1,01007	99,92555	20	20
27,05306	1,06057	99,92593	20	20
27,30916	1,11107	99,92231	20	20
27,58902	1,16158	99,90751	20	20
27,85812	1,21208	99,90713	20	20
28,19508	1,26258	99,89489	20	20
28,49678	1,31309	99,89642	20	20
28,81906	1,36359	99,86903	20	20
29,17218	1,41409	99,86853	20	20
29,5428	1,4646	99,85553	20	20
29,90869	1,5151	99,85047	20	20
30,288	1,5656	99,84751	20	20
30,68101	1,61611	99,84362	20	20
31,09787	1,66661	99,84151	20	20
31,51474	1,71711	99,83868	20	20
31,93663	1,76762	99,83583	20	20
32,40112	1,81812	99,83462	20	20
32,85728	1,86862	99,82606	20	20
33,32522	1,91913	99,8189	20	20
33,79058	1,96963	99,80745	20	20
34,27231	2,02013	99,80751	20	20
34,78584	2,07064	99,79092	20	20
35,28462	2,12114	99,77783	20	20
35,80291	2,17164	99,77941	20	20
36,29788	2,22215	99,77235	20	20
36,84417	2,27265	99,76695	20	20
37,38315	2,32315	99,76389	20	20
37,9016	2,37366	99,75842	20	20
38,48529	2,42416	99,75186	20	20
39,03345	2,47466	99,74007	20	20
39,59097	2,52516	99,73038	20	20
40,1557	2,57567	99,71139	20	20
40,74579	2,62617	99,71435	20	20
41,32924	2,67667	99,70679	20	20
41,92745	2,72718	99,69193	20	20
42,49982	2,77768	99,6813	20	20
43,09341	2,82818	99,67188	20	20
43,71097	2,87869	99,66272	20	20
44,30892	2,92919	99,65049	20	20
44,91765	2,97969	99,62343	20	20
45,54418	3,0302	99,61096	20	20
46,15533	3,0807	99,59433	20	20
46,7593	3,1312	99,57117	20	20
47,37184	3,18171	99,55241	20	20
48,00551	3,23221	99,53485	20	20
48,61736	3,28271	99,50724	20	20
49,2448	3,33322	99,49042	20	20
49,88124	3,38372	99,47291	20	20
50,49271	3,43422	99,45176	20	20
51,12067	3,48473	99,42974	20	20
51,77074	3,53523	99,40391	20	20
52,37859	3,58573	99,38315	20	20
53,0069	3,63624	99,35833	20	20
53,62917	3,68674	99,33544	20	20
54,25878	3,73724	99,30886	20	20
54,87833	3,78775	99,28487	20	20
55,50235	3,83825	99,25824	20	20
56,12712	3,88875	99,22133	20	20
56,73859	3,93926	99,19458	20	20
57,34547	3,98976	99,15667	20	20
57,96628	4,04026	99,13343	20	20
58,58774	4,09077	99,09843	20	20
59,20463	4,14127	99,06993	20	20
59,80866	4,19177	99,03294	20	20
60,40781	4,24228	99,0003	20	20
61,01733	4,29278	98,96454	20	20
61,62408	4,34328	98,92179	20	20
62,21463	4,39379	98,88089	20	20
62,81383	4,44429	98,83856	20	20
63,40472	4,49479	98,78898	20	20
63,98874	4,5453	98,74407	20	20
64,585	4,5958	98,69827	20	20
65,18045	4,6463	98,66153	20	20
65,76137	4,69681	98,62266	20	20
66,34952	4,74731	98,57699	20	20
66,92294	4,79781	98,54225	20	20
67,48996	4,84832	98,49561	20	20
68,07788	4,89882	98,44909	20	20
68,64763	4,94932	98,40946	20	20
69,20808	4,99983	98,36559	20	20
69,76238	5,05033	98,31751	20	20
70,32464	5,10083	98,26332	20	20
70,86866	5,15134	98,20188	20	20
71,43171	5,20184	98,15751	20	20
71,98281	5,25234	98,11062	20	20
72,545	5,30285	98,06497	20	20
73,09043	5,35335	98,02606	20	20
73,60737	5,40385	97,98043	20	20
74,16535	5,45436	97,93832	20	20
74,7119	5,50486	97,89156	20	20
75,24314	5,55536	97,83712	20	20
75,77971	5,60587	97,77879	20	20
76,30389	5,65637	97,72913	20	20
76,82052	5,70687	97,67836	20	20
77,34149	5,75738	97,62262	20	20
77,85941	5,80788	97,57112	20	20
78,39553	5,85838	97,51768	20	20
78,90182	5,90889	97,46408	20	20
79,44446	5,95939	97,411	20	20
79,94983	6,00989	97,35669	20	20
80,45146	6,0604	97,30702	20	20
80,96683	6,1109	97,25824	20	20
81,4845	6,1614	97,19992	20	20
81,99206	6,21191	97,15148	20	20
82,50309	6,26241	97,10198	20	20
82,99189	6,31291	97,05605	20	20
83,49926	6,36342	97,00491	20	20
84,00373	6,41392	96,96239	20	20
84,49877	6,46442	96,90786	20	20
85,01567	6,51493	96,85918	20	20
85,52491	6,56543	96,80489	20	20
86,03163	6,61593	96,75713	20	20
86,5201	6,66644	96,69689	20	20
87,01896	6,71694	96,64726	20	20
87,50042	6,76744	96,59826	20	20
88,01735	6,81795	96,54937	20	20
88,53041	6,86845	96,4974	20	20
89,01837	6,91895	96,43963	20	20
89,50495	6,96946	96,39544	20	20
90,00363	7,01996	96,34689	20	20
90,50964	7,07046	96,29836	20	20
91,01157	7,12097	96,25453	20	20
91,49792	7,17147	96,20613	20	20
92,01394	7,22197	96,15962	20	20
92,4943	7,27248	96,11668	20	20
93,00357	7,32298	96,06789	20	20
93,50384	7,37348	96,02291	20	20
93,99581	7,42399	95,98273	20	20
94,48766	7,47449	95,93308	20	20
94,99491	7,52499	95,8872	20	20
95,4784	7,57549	95,83852	20	20
95,98857	7,626	95,79567	20	20
96,49647	7,6765	95,74378	20	20
96,97206	7,727	95,69404	20	20
97,49226	7,77751	95,6524	20	20
97,97786	7,82801	95,60713	20	20
98,47256	7,87851	95,55223	20	20
98,98458	7,92902	95,50914	20	20
99,47829	7,97952	95,45943	20	20
99,95824	8,03002	95,40595	20	20
100,44292	8,08053	95,35559	20	20
100,95911	8,13103	95,31085	20	20
101,45795	8,18153	95,28139	20	20
101,96448	8,23204	95,24594	20	20
102,46393	8,28254	95,20135	20	20
102,96465	8,33304	95,17503	20	20
103,44912	8,38355	95,1357	20	20
103,95097	8,43405	95,10877	20	20
104,45104	8,48455	95,07146	20	20
104,95183	8,53506	95,0399	20	20
105,43666	8,58556	95,0055	20	20
105,92749	8,63606	94,96961	20	20
106,44162	8,68657	94,93402	20	20
106,93845	8,73707	94,89657	20	20
107,43411	8,78757	94,86424	20	20
107,93606	8,83808	94,83268	20	20
108,44155	8,88858	94,79576	20	20
108,92357	8,93908	94,75862	20	20
109,4322	8,98959	94,73404	20	20
109,93894	9,04009	94,69919	20	20
110,42307	9,09059	94,66955	20	20
110,92108	9,1411	94,63368	20	20
111,4253	9,1916	94,60167	20	20
111,92642	9,2421	94,57123	20	20
112,428	9,29261	94,5394	20	20
112,93292	9,34311	94,50433	20	20
113,43598	9,39361	94,48209	20	20
113,9358	9,44412	94,45759	20	20
114,43246	9,49462	94,43001	20	20
114,93462	9,54512	94,40207	20	20
115,45442	9,59563	94,36511	20	20
115,94962	9,64613	94,34234	20	20
116,44607	9,69663	94,30937	20	20
116,93194	9,74714	94,28948	20	20
117,43359	9,79764	94,25826	20	20
117,93564	9,84814	94,2416	20	20
118,43651	9,89865	94,22002	20	20
118,94878	9,94915	94,19919	20	20
119,45466	9,99965	94,17025	20	20
119,95961	10,05016	94,15133	20	20
120,45946	10,10066	94,12914	20	20
120,96871	10,15116	94,1096	20	20
121,46845	10,20167	94,08971	20	20
121,96194	10,25217	94,0745	20	20
122,47635	10,30267	94,0586	20	20
122,97238	10,35318	94,03248	20	20
123,48211	10,40368	94,02598	20	20
123,98471	10,45418	94,00965	20	20
124,49003	10,50469	93,99436	20	20
124,99489	10,55519	93,97499	20	20
125,4942	10,60569	93,95564	20	20
126,00518	10,6562	93,93976	20	20
126,5196	10,7067	93,9193	20	20
127,02288	10,7572	93,91122	20	20
127,52252	10,80771	93,8922	20	20
128,02992	10,85821	93,88238	20	20
128,54435	10,90871	93,86949	20	20
129,05004	10,95922	93,85506	20	20
129,56402	11,00972	93,83795	20	20
130,06659	11,06022	93,83449	20	20
130,57694	11,11073	93,83285	20	20
131,07	11,16123	93,82353	20	20
131,59332	11,21173	93,80766	20	20
132,11039	11,26224	93,79115	20	20
132,62197	11,31274	93,77915	20	20
133,12389	11,36324	93,76149	20	20
133,63352	11,41375	93,75517	20	20
134,15087	11,46425	93,74942	20	20
134,6516	11,51475	93,7388	20	20
135,17129	11,56526	93,72902	20	20
135,68439	11,61576	93,72065	20	20
136,19982	11,66626	93,71063	20	20
136,6994	11,71677	93,70001	20	20
137,21665	11,76727	93,69166	20	20
137,72176	11,81777	93,68092	20	20
138,23477	11,86828	93,66116	20	20
138,7535	11,91878	93,65371	20	20
139,25468	11,96928	93,64463	20	20
139,76893	12,01979	93,63475	20	20
140,29785	12,07029	93,62482	20	20
140,78611	12,12079	93,6182	20	20
141,29035	12,1713	93,60995	20	20
141,79417	12,2218	93,60243	20	20
142,30907	12,2723	93,59227	20	20
142,83691	12,32281	93,57791	20	20
143,32526	12,37331	93,57281	20	20
143,83649	12,42381	93,56329	20	20
144,36009	12,47432	93,55916	20	20
144,86885	12,52482	93,55273	20	20
145,36684	12,57532	93,54621	20	20
145,88823	12,62583	93,54071	20	20
146,39543	12,67633	93,52634	20	20
146,91502	12,72683	93,51893	20	20
147,42692	12,77733	93,51379	20	20
147,92665	12,82784	93,50798	20	20
148,43302	12,87834	93,5008	20	20
148,95107	12,92884	93,49239	20	20
149,45296	12,97935	93,48494	20	20
149,96235	13,02985	93,47584	20	20
150,45808	13,08035	93,46342	20	20
150,96625	13,13086	93,44864	20	20
151,47077	13,18136	93,4454	20	20
151,9825	13,23186	93,43962	20	20
152,49552	13,28237	93,43287	20	20
153,00707	13,33287	93,4254	20	20
153,51121	13,38337	93,41903	20	20
154,01335	13,43388	93,4165	20	20
154,5174	13,48438	93,41219	20	20
155,0324	13,53488	93,40394	20	20
155,54413	13,58539	93,39463	20	20
156,04214	13,63589	93,38996	20	20
156,54762	13,68639	93,38431	20	20
157,05275	13,7369	93,37958	20	20
157,55595	13,7874	93,37615	20	20
158,07301	13,8379	93,37136	20	20
158,57073	13,88841	93,36466	20	20
159,07138	13,93891	93,36049	20	20
159,56914	13,98941	93,35631	20	20
160,07111	14,03992	93,35299	20	20
160,58676	14,09042	93,34883	20	20
161,07711	14,14092	93,34458	20	20
161,58239	14,19143	93,33217	20	20
162,08629	14,24193	93,32337	20	20
162,59849	14,29243	93,32106	20	20
163,09402	14,34294	93,31915	20	20
163,60138	14,39344	93,31413	20	20
164,10593	14,44394	93,30929	20	20
164,60295	14,49445	93,30505	20	20
165,10312	14,54495	93,30181	20	20
165,61909	14,59545	93,29678	20	20
166,11845	14,64596	93,29272	20	20
166,62159	14,69646	93,28904	20	20
167,13655	14,74696	93,28829	20	20
167,64336	14,79747	93,28838	20	20
168,1431	14,84797	93,28597	20	20
168,64864	14,89847	93,28202	20	20
169,13508	14,94898	93,27771	20	20
169,65004	14,99948	93,2744	20	20
170,14684	15,04998	93,27192	20	20
170,64501	15,10049	93,26947	20	20
171,1591	15,15099	93,26864	20	20
171,66284	15,20149	93,26867	20	20
172,14743	15,252	93,26693	20	20
172,65718	15,3025	93,26438	20	20
173,16567	15,353	93,26206	20	20
173,66117	15,40351	93,25918	20	20
174,1751	15,45401	93,25427	20	20
174,67517	15,50451	93,25144	20	20
175,17321	15,55502	93,24346	20	20
175,69381	15,60552	93,23771	20	20
176,19125	15,65602	93,23333	20	20
176,6819	15,70653	93,2286	20	20
177,18402	15,75703	93,21928	20	20
177,69872	15,80753	93,21175	20	20
178,20292	15,85804	93,20428	20	20
178,70783	15,90854	93,19757	20	20
179,21388	15,95904	93,19335	20	20
179,71018	16,00955	93,18757	20	20
180,22143	16,06005	93,18347	20	20
180,7276	16,11055	93,18016	20	20
181,23796	16,16106	93,17684	20	20
181,73658	16,21156	93,1735	20	20
182,23848	16,26206	93,1702	20	20
182,76615	16,31257	93,16631	20	20
183,26678	16,36307	93,16259	20	20
183,77617	16,41357	93,15618	20	20
184,27229	16,46408	93,15195	20	20
184,77292	16,51458	93,14999	20	20
185,28146	16,56508	93,14908	20	20
185,79941	16,61559	93,14908	20	20
186,30418	16,66609	93,14819	20	20
186,80518	16,71659	93,14739	20	20
187,32148	16,7671	93,14662	20	20
187,83576	16,8176	93,14578	20	20
188,34301	16,8681	93,14512	20	20
188,85719	16,91861	93,14267	20	20
189,35613	16,96911	93,14011	20	20
189,87111	17,01961	93,13845	20	20
190,39123	17,07012	93,13679	20	20
190,89273	17,12062	93,13518	20	20
191,39496	17,17112	93,13347	20	20
191,90815	17,22163	93,12975	20	20
192,40973	17,27213	93,11874	20	20
192,9322	17,32263	93,11365	20	20
193,4355	17,37314	93,10934	20	20
193,94439	17,42364	93,10346	20	20
194,44623	17,47414	93,09806	20	20
194,95199	17,52465	93,08238	20	20
195,46899	17,57515	93,07044	20	20
195,97223	17,62565	93,06094	20	20
196,4804	17,67616	93,05694	20	20
196,98797	17,72666	93,05355	20	20
197,50174	17,77716	93,05103	20	20
198,0115	17,82766	93,05081	20	20
198,50617	17,87817	93,05081	20	20
199,02368	17,92867	93,05082	20	20
199,52792	17,97917	93,05003	20	20
200,04656	18,02968	93,04675	20	20
200,55997	18,08018	93,04261	20	20
201,05551	18,13068	93,03939	20	20
201,566	18,18119	93,03604	20	20
202,06509	18,23169	93,03181	20	20
202,57525	18,28219	93,02852	20	20
203,0747	18,3327	93,02338	20	20
203,59001	18,3832	93,01856	20	20
204,10064	18,4337	93,01389	20	20
204,60044	18,48421	93,00354	20	20
205,11217	18,53471	92,99342	20	20
205,62015	18,58521	92,98658	20	20
206,11301	18,63572	92,97903	20	20
206,6173	18,68622	92,97271	20	20
207,12055	18,73672	92,964	20	20
207,6451	18,78723	92,95708	20	20
208,14043	18,83773	92,95051	20	20
208,64106	18,88823	92,94462	20	20
209,16861	18,93874	92,93958	20	20
209,6821	18,98924	92,93216	20	20
210,18293	19,03974	92,92637	20	20
210,68251	19,09025	92,92141	20	20
211,19902	19,14075	92,91646	20	20
211,6954	19,19125	92,90818	20	20
212,20412	19,24176	92,90049	20	20
212,71897	19,29226	92,89167	20	20
213,21223	19,34276	92,88264	20	20
213,72074	19,39327	92,87443	20	20
214,23004	19,44377	92,86669	20	20
214,71855	19,49427	92,86034	20	20
215,21912	19,54478	92,85219	20	20
215,72669	19,59528	92,83743	20	20
216,23092	19,64578	92,82752	20	20
216,73577	19,69629	92,82209	20	20
217,24288	19,74679	92,81525	20	20
217,741	19,79729	92,80868	20	20
218,25003	19,8478	92,80207	20	20
218,75112	19,8983	92,79541	20	20
219,25995	19,9488	92,78974	20	20
219,75406	19,99931	92,78393	20	20
220,26305	20,04981	92,77814	20	20
220,77445	20,10031	92,77481	20	20
221,27584	20,15082	92,76236	20	20
221,78515	20,20132	92,75091	20	20
222,27892	20,25182	92,74192	20	20
222,79543	20,30233	92,73533	20	20
223,32013	20,35283	92,72942	20	20
223,80153	20,40333	92,72024	20	20
224,30912	20,45384	92,71228	20	20
224,82332	20,50434	92,70452	20	20
225,32186	20,55484	92,69258	20	20
225,84172	20,60535	92,68011	20	20
226,33575	20,65585	92,67492	20	20
226,84719	20,70635	92,66185	20	20
227,34492	20,75686	92,65011	20	20
227,83912	20,80736	92,63891	20	20
228,33599	20,85786	92,62259	20	20
228,85631	20,90837	92,60739	20	20
229,35115	20,95887	92,59087	20	20
229,86722	21,00937	92,57602	20	20
230,37988	21,05988	92,56278	20	20
230,86586	21,11038	92,55202	20	20
231,39308	21,16088	92,53451	20	20
231,89655	21,21139	92,52332	20	20
232,38825	21,26189	92,50812	20	20
232,89419	21,31239	92,49433	20	20
233,39451	21,3629	92,48177	20	20
233,90718	21,4134	92,46843	20	20
234,40695	21,4639	92,46085	20	20
234,92179	21,51441	92,44913	20	20
235,43061	21,56491	92,43545	20	20
235,93763	21,61541	92,4241	20	20
236,44153	21,66592	92,40819	20	20
236,94258	21,71642	92,39282	20	20
237,44587	21,76692	92,37923	20	20
237,97946	21,81743	92,36684	20	20
238,46924	21,86793	92,35016	20	20
238,97474	21,91843	92,32877	20	20
239,48384	21,96894	92,31826	20	20
239,98856	22,01944	92,30009	20	20
240,48944	22,06994	92,2827	20	20
240,99948	22,12045	92,25958	20	20
241,50769	22,17095	92,23895	20	20
242,00774	22,22145	92,22065	20	20
242,52974	22,27196	92,19261	20	20
243,02342	22,32246	92,17952	20	20
243,53141	22,37296	92,16253	20	20
244,03242	22,42347	92,14576	20	20
244,54221	22,47397	92,12856	20	20
245,04184	22,52447	92,10843	20	20
245,53511	22,57498	92,09327	20	20
246,0514	22,62548	92,07817	20	20
246,55326	22,67598	92,06038	20	20
247,05594	22,72648	92,04643	20	20
247,5551	22,77699	92,02239	20	20
248,06485	22,82749	92,00752	20	20
248,57853	22,87799	91,98814	20	20
249,0872	22,9285	91,96948	20	20
249,59398	22,979	91,95243	20	20
250,0883	23,0295	91,93061	20	20
250,60009	23,08001	91,91663	20	20
251,09775	23,13051	91,89517	20	20
251,60378	23,18101	91,87538	20	20
252,10497	23,23152	91,85511	20	20
252,61213	23,28202	91,83501	20	20
253,11267	23,33252	91,81521	20	20
253,62956	23,38303	91,79266	20	20
254,12453	23,43353	91,76801	20	20
254,62447	23,48403	91,74345	20	20
255,13972	23,53454	91,71525	20	20
255,6452	23,58504	91,69466	20	20
256,15227	23,63554	91,66976	20	20
256,65293	23,68605	91,63975	20	20
257,15585	23,73655	91,61427	20	20
257,65651	23,78705	91,58816	20	20
258,17274	23,83756	91,56668	20	20
258,67757	23,88806	91,5383	20	20
259,17455	23,93856	91,51358	20	20
259,69723	23,98907	91,4799	20	20
260,18551	24,03957	91,45661	20	20
260,68872	24,09007	91,41623	20	20
261,18535	24,14058	91,40048	20	20
261,69504	24,19108	91,37246	20	20
262,20276	24,24158	91,33498	20	20
262,70531	24,29209	91,31935	20	20
263,2049	24,34259	91,28951	20	20
263,70716	24,39309	91,25446	20	20
264,20638	24,4436	91,22654	20	20
264,71837	24,4941	91,19993	20	20
265,21943	24,5446	91,16868	20	20
265,71759	24,59511	91,13848	20	20
266,21868	24,64561	91,1073	20	20
266,72385	24,69611	91,08285	20	20
267,23108	24,74662	91,0518	20	20
267,73889	24,79712	91,01975	20	20
268,23736	24,84762	90,99304	20	20
268,75082	24,89813	90,95593	20	20
269,24976	24,94863	90,93028	20	20
269,7562	24,99913	90,89798	20	20
270,25753	25,04964	90,86464	20	20
270,76616	25,10014	90,83314	20	20
271,27231	25,15064	90,79844	20	20
271,77655	25,20115	90,76073	20	20
272,28599	25,25165	90,7366	20	20
272,79428	25,30215	90,69306	20	20
273,29806	25,35266	90,66986	20	20
273,8097	25,40316	90,63689	20	20
274,29804	25,45366	90,6007	20	20
274,81812	25,50417	90,57292	20	20
275,33604	25,55467	90,53695	20	20
275,82751	25,60517	90,50501	20	20
276,33294	25,65568	90,4733	20	20
276,83674	25,70618	90,44116	20	20
277,34813	25,75668	90,40827	20	20
277,8515	25,80719	90,36702	20	20
278,35937	25,85769	90,32571	20	20
278,85928	25,90819	90,29776	20	20
279,3794	25,9587	90,264	20	20
279,87999	26,0092	90,22026	20	20
280,39219	26,0597	90,18732	20	20
280,89324	26,11021	90,15177	20	20
281,39976	26,16071	90,11529	20	20
281,90241	26,21121	90,08121	20	20
282,41028	26,26172	90,04373	20	20
282,92086	26,31222	90,01238	20	20
283,43522	26,36272	89,97011	20	20
283,93449	26,41323	89,93726	20	20
284,43609	26,46373	89,90066	20	20
284,93227	26,51423	89,86235	20	20
285,44543	26,56474	89,82564	20	20
285,96183	26,61524	89,77854	20	20
286,46718	26,66574	89,73774	20	20
286,96234	26,71625	89,7024	20	20
287,46415	26,76675	89,65801	20	20
287,97564	26,81725	89,62274	20	20
288,4872	26,86776	89,57482	20	20
288,99801	26,91826	89,53777	20	20
289,48741	26,96876	89,49995	20	20
290,00082	27,01927	89,46193	20	20
290,49078	27,06977	89,41334	20	20
290,99676	27,12027	89,37862	20	20
291,5005	27,17078	89,33431	20	20
292,00679	27,22128	89,29153	20	20
292,51279	27,27178	89,2505	20	20
293,01291	27,32229	89,21341	20	20
293,50187	27,37279	89,17321	20	20
294,01209	27,42329	89,13924	20	20
294,51986	27,4738	89,10633	20	20
295,02585	27,5243	89,05905	20	20
295,53616	27,5748	89,02613	20	20
296,03719	27,62531	88,98562	20	20
296,52518	27,67581	88,94853	20	20
297,03502	27,72631	88,90506	20	20
297,54366	27,77681	88,8656	20	20
298,03658	27,82732	88,83424	20	20
298,5365	27,87782	88,79931	20	20
299,03287	27,92832	88,75792	20	20
299,53287	27,97883	88,72057	20	20
300,03774	28,02933	88,68033	20	20
300,5393	28,07983	88,63382	20	20
301,03299	28,13034	88,59159	20	20
301,53569	28,18084	88,53932	20	20
302,0447	28,23134	88,49913	20	20
302,53087	28,28185	88,45577	20	20
303,03536	28,33235	88,41238	20	20
303,53314	28,38285	88,36989	20	20
304,0472	28,43336	88,33151	20	20
304,54415	28,48386	88,28814	20	20
305,04787	28,53436	88,2477	20	20
305,5343	28,58487	88,19812	20	20
306,05478	28,63537	88,14996	20	20
306,54475	28,68587	88,10848	20	20
307,04139	28,73638	88,06224	20	20
307,54578	28,78688	88,01773	20	20
308,06036	28,83738	87,96918	20	20
308,55626	28,88789	87,91999	20	20
309,05371	28,93839	87,87764	20	20
309,56817	28,98889	87,83657	20	20
310,07509	29,0394	87,79419	20	20
310,57795	29,0899	87,75669	20	20
311,07503	29,1404	87,7227	20	20
311,59658	29,19091	87,67907	20	20
312,09308	29,24141	87,62663	20	20
312,60083	29,29191	87,58125	20	20
313,09519	29,34242	87,54393	20	20
313,62492	29,39292	87,49833	20	20
314,12046	29,44342	87,45602	20	20
314,62259	29,49393	87,41101	20	20
315,14175	29,54443	87,36487	20	20
315,64736	29,59493	87,31289	20	20
316,15869	29,64544	87,25832	20	20
316,66524	29,69594	87,2112	20	20
317,1766	29,74644	87,16292	20	20
317,68101	29,79695	87,11117	20	20
318,19093	29,84745	87,06035	20	20
318,7153	29,89795	87,01209	20	20
319,2276	29,94846	86,95808	20	20
319,72497	29,99896	86,91044	20	20
320,24722	30,04946	86,86584	20	20
320,76668	30,09997	86,82312	20	20
321,26763	30,15047	86,77318	20	20
321,77837	30,20097	86,72728	20	20
322,27488	30,25148	86,67327	20	20
322,79118	30,30198	86,6238	20	20
323,30725	30,35248	86,58769	20	20
323,81169	30,40299	86,53481	20	20
324,32331	30,45349	86,48767	20	20
324,82608	30,50399	86,43068	20	20
325,34008	30,5545	86,38544	20	20
325,84236	30,605	86,32995	20	20
326,35387	30,6555	86,28449	20	20
326,86099	30,70601	86,2351	20	20
327,3645	30,75651	86,18073	20	20
327,87484	30,80701	86,13029	20	20
328,38397	30,85752	86,07096	20	20
328,8847	30,90802	86,01986	20	20
329,38452	30,95852	85,96905	20	20
329,89432	31,00903	85,91945	20	20
330,39216	31,05953	85,85413	20	20
330,89929	31,11003	85,8035	20	20
331,39637	31,16054	85,7461	20	20
331,89547	31,21104	85,70131	20	20
332,39868	31,26154	85,64488	20	20
332,90824	31,31205	85,59447	20	20
333,41731	31,36255	85,54518	20	20
333,89156	31,41305	85,4936	20	20
334,40464	31,46356	85,43603	20	20
334,90777	31,51406	85,392	20	20
335,40578	31,56456	85,33498	20	20
335,90805	31,61507	85,28417	20	20
336,41363	31,66557	85,23901	20	20
336,91896	31,71607	85,18516	20	20
337,42117	31,76658	85,1233	20	20
337,92194	31,81708	85,06518	20	20
338,43661	31,86758	85,01115	20	20
338,93926	31,91809	84,952	20	20
339,44174	31,96859	84,88485	20	20
339,94732	32,01909	84,82905	20	20
340,45487	32,0696	84,77145	20	20
340,953	32,1201	84,71345	20	20
341,46989	32,1706	84,65727	20	20
341,97103	32,22111	84,59917	20	20
342,46937	32,27161	84,54251	20	20
342,9779	32,32211	84,48005	20	20
343,47438	32,37262	84,40768	20	20
343,98437	32,42312	84,35217	20	20
344,49606	32,47362	84,28289	20	20
344,99104	32,52413	84,22107	20	20
345,49874	32,57463	84,15307	20	20
346,00083	32,62513	84,09221	20	20
346,49729	32,67564	84,03357	20	20
347,00437	32,72614	83,97618	20	20
347,50853	32,77664	83,92218	20	20
348,02746	32,82714	83,85828	20	20
348,51674	32,87765	83,80309	20	20
349,01692	32,92815	83,7431	20	20
349,51997	32,97865	83,68107	20	20
350,01989	33,02916	83,62071	20	20
350,52651	33,07966	83,55363	20	20
351,01473	33,13016	83,49477	20	20
351,53229	33,18067	83,4329	20	20
352,03758	33,23117	83,35802	20	20
352,53848	33,28167	83,28412	20	20
353,03631	33,33218	83,21231	20	20
353,54394	33,38268	83,14888	20	20
354,037	33,43318	83,06828	20	20
354,53866	33,48369	82,9957	20	20
355,04767	33,53419	82,91792	20	20
355,53836	33,58469	82,8417	20	20
356,05405	33,6352	82,77372	20	20
356,54677	33,6857	82,71081	20	20
357,04721	33,7362	82,64185	20	20
357,56178	33,78671	82,57031	20	20
358,05065	33,83721	82,49954	20	20
358,56812	33,88771	82,43252	20	20
359,06411	33,93822	82,35733	20	20
359,57171	33,98872	82,27227	20	20
360,08419	34,03922	82,19458	20	20
360,57936	34,08973	82,11892	20	20
361,08724	34,14023	82,0485	20	20
361,59189	34,19073	81,98314	20	20
362,08945	34,24124	81,91613	20	20
362,58327	34,29174	81,85553	20	20
363,10077	34,34224	81,78165	20	20
363,60183	34,39275	81,70593	20	20
364,1042	34,44325	81,63174	20	20
364,60654	34,49375	81,5581	20	20
365,11526	34,54426	81,48028	20	20
365,61729	34,59476	81,40977	20	20
366,12988	34,64526	81,34046	20	20
366,63084	34,69577	81,26592	20	20
367,12648	34,74627	81,19052	20	20
367,63755	34,79677	81,12112	20	20
368,12326	34,84728	81,04693	20	20
368,6365	34,89778	80,97885	20	20
369,14583	34,94828	80,91277	20	20
369,6336	34,99879	80,84109	20	20
370,15703	35,04929	80,76696	20	20
370,65595	35,09979	80,69143	20	20
371,18196	35,1503	80,61455	20	20
371,67422	35,2008	80,54372	20	20
372,18628	35,2513	80,46989	20	20
372,68746	35,30181	80,39834	20	20
373,19395	35,35231	80,33991	20	20
373,70245	35,40281	80,27541	20	20
374,21512	35,45332	80,21247	20	20
374,71926	35,50382	80,14823	20	20
375,23224	35,55432	80,0655	20	20
375,73298	35,60483	79,99065	20	20
376,2367	35,65533	79,91123	20	20
376,74641	35,70583	79,83674	20	20
377,2476	35,75634	79,76103	20	20
377,77172	35,80684	79,69271	20	20
378,26934	35,85734	79,6188	20	20
378,77055	35,90785	79,54271	20	20
379,27709	35,95835	79,47416	20	20
379,79296	36,00885	79,40034	20	20
380,28772	36,05936	79,3305	20	20
380,79453	36,10986	79,25572	20	20
381,29572	36,16036	79,18293	20	20
381,7958	36,21087	79,11588	20	20
382,32242	36,26137	79,03669	20	20
382,82499	36,31187	78,96526	20	20
383,33391	36,36238	78,89636	20	20
383,84498	36,41288	78,82709	20	20
384,34532	36,46338	78,75494	20	20
384,84989	36,51389	78,68016	20	20
385,35976	36,56439	78,60501	20	20
385,85518	36,61489	78,5401	20	20
386,37084	36,6654	78,46898	20	20
386,85906	36,7159	78,39396	20	20
387,36856	36,7664	78,32958	20	20
387,87044	36,81691	78,26308	20	20
388,36699	36,86741	78,19325	20	20
388,86341	36,91791	78,1177	20	20
389,37138	36,96842	78,03953	20	20
389,87489	37,01892	77,96876	20	20
390,38601	37,06942	77,90066	20	20
390,89429	37,11993	77,82915	20	20
391,40016	37,17043	77,75147	20	20
391,90102	37,22093	77,69229	20	20
392,39637	37,27144	77,62969	20	20
392,91264	37,32194	77,56218	20	20
393,42587	37,37244	77,49256	20	20
393,92335	37,42295	77,42408	20	20
394,42437	37,47345	77,34551	20	20
394,92769	37,52395	77,27133	20	20
395,43089	37,57446	77,20669	20	20
395,9377	37,62496	77,13415	20	20
396,44852	37,67546	77,05927	20	20
396,95848	37,72597	76,98445	20	20
397,47164	37,77647	76,92121	20	20
397,96484	37,82697	76,8451	20	20
398,46584	37,87748	76,78127	20	20
398,97001	37,92798	76,71016	20	20
399,48142	37,97848	76,64263	20	20
399,98705	38,02898	76,57008	20	20
400,4862	38,07949	76,50084	20	20
400,99693	38,12999	76,4337	20	20
401,50597	38,18049	76,36745	20	20
402,00946	38,231	76,30226	20	20
402,51918	38,2815	76,23445	20	20
403,01691	38,332	76,16818	20	20
403,52234	38,38251	76,09572	20	20
404,02375	38,43301	76,02466	20	20
404,54299	38,48351	75,94641	20	20
405,03632	38,53402	75,86678	20	20
405,5396	38,58452	75,79676	20	20
406,04782	38,63502	75,71586	20	20
406,55518	38,68553	75,64664	20	20
407,06019	38,73603	75,57353	20	20
407,5611	38,78653	75,50741	20	20
408,06387	38,83704	75,43943	20	20
408,57615	38,88754	75,36271	20	20
409,07813	38,93804	75,28704	20	20
409,58282	38,98855	75,21515	20	20
410,0832	39,03905	75,14564	20	20
410,60247	39,08955	75,07485	20	20
411,09959	39,14006	75,00051	20	20
411,61768	39,19056	74,92836	20	20
412,11372	39,24106	74,85889	20	20
412,61634	39,29157	74,78203	20	20
413,12884	39,34207	74,70473	20	20
413,63166	39,39257	74,63139	20	20
414,1449	39,44308	74,5595	20	20
414,65135	39,49358	74,48987	20	20
415,15405	39,54408	74,41564	20	20
415,6574	39,59459	74,33746	20	20
416,15583	39,64509	74,26348	20	20
416,66281	39,69559	74,19429	20	20
417,16833	39,7461	74,12099	20	20
417,6712	39,7966	74,04836	20	20
418,19849	39,8471	73,97747	20	20
418,70152	39,89761	73,90819	20	20
419,19473	39,94811	73,8425	20	20
419,71061	39,99861	73,77819	20	20
420,20976	40,04912	73,71596	20	20
420,71445	40,09962	73,64913	20	20
421,2242	40,15012	73,5772	20	20
421,73644	40,20063	73,50636	20	20
422,23439	40,25113	73,42729	20	20
422,74576	40,30163	73,3465	20	20
423,25763	40,35214	73,2753	20	20
423,75172	40,40264	73,1962	20	20
424,2635	40,45314	73,11846	20	20
424,76605	40,50365	73,05546	20	20
425,26801	40,55415	72,97817	20	20
425,77684	40,60465	72,91075	20	20
426,27635	40,65516	72,83477	20	20
426,78376	40,70566	72,76388	20	20
427,29925	40,75616	72,68805	20	20
427,79542	40,80667	72,62424	20	20
428,28098	40,85717	72,54867	20	20
428,78838	40,90767	72,47992	20	20
429,29464	40,95818	72,40667	20	20
429,80084	41,00868	72,33679	20	20
430,30378	41,05918	72,26298	20	20
430,81284	41,10969	72,18326	20	20
431,31776	41,16019	72,11451	20	20
431,8213	41,21069	72,04285	20	20
432,32977	41,2612	71,96741	20	20
432,83163	41,3117	71,8895	20	20
433,33785	41,3622	71,81811	20	20
433,84208	41,41271	71,7527	20	20
434,35602	41,46321	71,68298	20	20
434,84353	41,51371	71,61222	20	20
435,33821	41,56422	71,54285	20	20
435,84786	41,61472	71,46882	20	20
436,35542	41,66522	71,38883	20	20
436,84943	41,71573	71,30784	20	20
437,35509	41,76623	71,2296	20	20
437,85583	41,81673	71,15098	20	20
438,35555	41,86724	71,07457	20	20
438,85539	41,91774	71,0015	20	20
439,37002	41,96824	70,91805	20	20
439,86647	42,01875	70,84128	20	20
440,36939	42,06925	70,76539	20	20
440,86853	42,11975	70,69599	20	20
441,38203	42,17026	70,61663	20	20
441,89005	42,22076	70,54486	20	20
442,39085	42,27126	70,4651	20	20
442,89041	42,32177	70,38872	20	20
443,40518	42,37227	70,31582	20	20
443,89809	42,42277	70,24146	20	20
444,40063	42,47328	70,16606	20	20
444,90959	42,52378	70,09323	20	20
445,40167	42,57428	70,01215	20	20
445,92299	42,62479	69,92713	20	20
446,42187	42,67529	69,85002	20	20
446,91653	42,72579	69,76466	20	20
447,42149	42,7763	69,69136	20	20
447,92249	42,8268	69,6052	20	20
448,4341	42,8773	69,52614	20	20
448,93237	42,92781	69,45384	20	20
449,43372	42,97831	69,37669	20	20
449,94768	43,02881	69,28832	20	20
450,43824	43,07931	69,2115	20	20
450,94717	43,12982	69,12614	20	20
451,45802	43,18032	69,04415	20	20
451,95922	43,23082	68,9646	20	20
452,44527	43,28133	68,87894	20	20
452,98358	43,33183	68,80201	20	20
453,46819	43,38233	68,72441	20	20
453,97332	43,43284	68,64478	20	20
454,49163	43,48334	68,56375	20	20
454,9933	43,53384	68,48306	20	20
455,49594	43,58435	68,40485	20	20
456,0016	43,63485	68,32618	20	20
456,50808	43,68535	68,24761	20	20
457,0157	43,73586	68,16914	20	20
457,51525	43,78636	68,08982	20	20
458,02531	43,83686	68,01212	20	20
458,54591	43,88737	67,93336	20	20
459,05126	43,93787	67,86301	20	20
459,55085	43,98837	67,78601	20	20
460,04915	44,03888	67,70593	20	20
460,55681	44,08938	67,62401	20	20
461,06489	44,13988	67,53652	20	20
461,57171	44,19039	67,46136	20	20
462,0716	44,24089	67,37429	20	20
462,58059	44,29139	67,29427	20	20
463,09187	44,3419	67,21017	20	20
463,58687	44,3924	67,1292	20	20
464,09223	44,4429	67,05328	20	20
464,59415	44,49341	66,97624	20	20
465,10434	44,54391	66,89268	20	20
465,60586	44,59441	66,81017	20	20
466,11563	44,64492	66,72222	20	20
466,62921	44,69542	66,63747	20	20
467,13918	44,74592	66,55862	20	20
467,64162	44,79643	66,48044	20	20
468,14967	44,84693	66,40164	20	20
468,65834	44,89743	66,3267	20	20
469,15713	44,94794	66,24395	20	20
469,65896	44,99844	66,1641	20	20
470,16757	45,04894	66,08785	20	20
470,67736	45,09945	66,00259	20	20
471,18448	45,14995	65,9199	20	20
471,66736	45,20045	65,83887	20	20
472,19568	45,25096	65,75122	20	20
472,68892	45,30146	65,67485	20	20
473,20003	45,35196	65,5915	20	20
473,71263	45,40247	65,50939	20	20
474,22387	45,45297	65,43648	20	20
474,72429	45,50347	65,35742	20	20
475,23881	45,55398	65,2788	20	20
475,74288	45,60448	65,19835	20	20
476,24373	45,65498	65,11936	20	20
476,75039	45,70549	65,03376	20	20
477,25269	45,75599	64,95763	20	20
477,76431	45,80649	64,87286	20	20
478,27546	45,857	64,78798	20	20
478,7698	45,9075	64,70051	20	20
479,26819	45,958	64,6245	20	20
479,76599	46,00851	64,54188	20	20
480,28686	46,05901	64,46271	20	20
480,78753	46,10951	64,38269	20	20
481,29416	46,16002	64,29674	20	20
481,80039	46,21052	64,21736	20	20
482,298	46,26102	64,13135	20	20
482,80387	46,31153	64,05208	20	20
483,30267	46,36203	63,97347	20	20
483,80076	46,41253	63,89074	20	20
484,32097	46,46304	63,80489	20	20
484,81493	46,51354	63,71885	20	20
485,31892	46,56404	63,63341	20	20
485,8318	46,61455	63,54882	20	20
486,33435	46,66505	63,4705	20	20
486,83792	46,71555	63,38876	20	20
487,34567	46,76606	63,31128	20	20
487,84213	46,81656	63,24066	20	20
488,35196	46,86706	63,15436	20	20
488,85104	46,91757	63,07223	20	20
489,35424	46,96807	62,98652	20	20
489,86058	47,01857	62,90141	20	20
490,36683	47,06908	62,82249	20	20
490,86997	47,11958	62,74159	20	20
491,37782	47,17008	62,66128	20	20
491,88367	47,22059	62,57941	20	20
492,38932	47,27109	62,49152	20	20
492,8893	47,32159	62,40905	20	20
493,38261	47,3721	62,31812	20	20
493,8966	47,4226	62,23674	20	20
494,42319	47,4731	62,15673	20	20
494,90551	47,52361	62,07092	20	20
495,41838	47,57411	61,98669	20	20
495,9133	47,62461	61,90024	20	20
496,43574	47,67512	61,81406	20	20
496,94061	47,72562	61,72752	20	20
497,43933	47,77612	61,64391	20	20
497,94798	47,82663	61,55744	20	20
498,45585	47,87713	61,46932	20	20
498,95401	47,92763	61,383	20	20
499,45552	47,97814	61,29728	20	20
499,96167	48,02864	61,20889	20	20
500,46775	48,07914	61,11834	20	20
500,97425	48,12964	61,03474	20	20
501,48446	48,18015	60,94646	20	20
501,98437	48,23065	60,85118	20	20
502,48588	48,28115	60,76469	20	20
502,99489	48,33166	60,67688	20	20
503,49414	48,38216	60,58451	20	20
504,00365	48,43266	60,50354	20	20
504,51999	48,48317	60,41651	20	20
505,01954	48,53367	60,32434	20	20
505,5219	48,58417	60,24037	20	20
506,02476	48,63468	60,15038	20	20
506,52189	48,68518	60,05511	20	20
507,03996	48,73568	59,96663	20	20
507,54205	48,78619	59,87297	20	20
508,05039	48,83669	59,78316	20	20
508,56683	48,88719	59,69797	20	20
509,06496	48,9377	59,61001	20	20
509,5711	48,9882	59,53239	20	20
510,07888	49,0387	59,44508	20	20
510,5897	49,08921	59,35541	20	20
511,10216	49,13971	59,27245	20	20
511,60703	49,19021	59,18149	20	20
512,11158	49,24072	59,09148	20	20
512,6267	49,29122	58,99868	20	20
513,11838	49,34172	58,90479	20	20
513,62336	49,39223	58,80793	20	20
514,14362	49,44273	58,71424	20	20
514,64266	49,49323	58,62162	20	20
515,13852	49,54374	58,53529	20	20
515,65866	49,59424	58,45054	20	20
516,15166	49,64474	58,35635	20	20
516,66049	49,69525	58,26422	20	20
517,17202	49,74575	58,17375	20	20
517,66228	49,79625	58,08218	20	20
518,17117	49,84676	57,99191	20	20
518,67285	49,89726	57,8984	20	20
519,16931	49,94776	57,80624	20	20
519,67905	49,99827	57,7155	20	20
520,18231	50,04877	57,62937	20	20
520,6947	50,09927	57,5341	20	20
521,19494	50,14978	57,44713	20	20
521,69783	50,20028	57,35863	20	20
522,20657	50,25078	57,27162	20	20
522,70389	50,30129	57,16898	20	20
523,204	50,35179	57,07573	20	20
523,71296	50,40229	56,98819	20	20
524,21766	50,4528	56,89375	20	20
524,72751	50,5033	56,80325	20	20
525,22893	50,5538	56,70924	20	20
525,72777	50,60431	56,61829	20	20
526,23568	50,65481	56,53019	20	20
526,7346	50,70531	56,44467	20	20
527,23661	50,75582	56,35754	20	20
527,74428	50,80632	56,26377	20	20
528,23889	50,85682	56,16964	20	20
528,74662	50,90733	56,07907	20	20
529,25587	50,95783	55,98656	20	20
529,74999	51,00833	55,89758	20	20
530,2718	51,05884	55,80802	20	20
530,76183	51,10934	55,72103	20	20
531,26146	51,15984	55,62905	20	20
531,77064	51,21035	55,54871	20	20
532,28323	51,26085	55,45698	20	20
532,77888	51,31135	55,37191	20	20
533,28845	51,36186	55,27741	20	20
533,78544	51,41236	55,19429	20	20
534,28331	51,46286	55,10911	20	20
534,78686	51,51337	55,02133	20	20
535,2916	51,56387	54,93497	20	20
535,80779	51,61437	54,84786	20	20
536,30887	51,66488	54,76333	20	20
536,81076	51,71538	54,67938	20	20
537,3195	51,76588	54,59866	20	20
537,82536	51,81639	54,50994	20	20
538,3368	51,86689	54,42681	20	20
538,83758	51,91739	54,3369	20	20
539,34711	51,9679	54,25348	20	20
539,86022	52,0184	54,16385	20	20
540,35733	52,0689	54,07709	20	20
540,86399	52,11941	53,99496	20	20
541,38009	52,16991	53,91654	20	20
541,88384	52,22041	53,82985	20	20
542,38319	52,27092	53,7558	20	20
542,89317	52,32142	53,67436	20	20
543,39646	52,37192	53,59686	20	20
543,91498	52,42243	53,5154	20	20
544,4146	52,47293	53,43714	20	20
544,92345	52,52343	53,35105	20	20
545,43387	52,57394	53,26754	20	20
545,93749	52,62444	53,19045	20	20
546,44373	52,67494	53,11205	20	20
546,93744	52,72545	53,02549	20	20
547,45368	52,77595	52,95557	20	20
547,95191	52,82645	52,8766	20	20
548,46129	52,87696	52,79807	20	20
548,96073	52,92746	52,72064	20	20
549,46082	52,97796	52,63774	20	20
549,97111	53,02847	52,5671	20	20
550,49081	53,07897	52,49015	20	20
551,00461	53,12947	52,41602	20	20
551,49977	53,17997	52,3548	20	20
552,00366	53,23048	52,27186	20	20
552,49744	53,28098	52,18387	20	20
552,98396	53,33148	52,10928	20	20
553,49833	53,38199	52,03609	20	20
553,99313	53,43249	51,96691	20	20
554,49622	53,48299	51,8954	20	20
555,00282	53,5335	51,82471	20	20
555,51664	53,584	51,74471	20	20
556,0246	53,6345	51,67665	20	20
556,52565	53,68501	51,60993	20	20
557,02955	53,73551	51,53736	20	20
557,52771	53,78601	51,46787	20	20
558,04898	53,83652	51,39561	20	20
558,54261	53,88702	51,35634	20	20
559,05861	53,93752	51,28055	20	20
559,56226	53,98803	51,20481	20	20
560,06783	54,03853	51,11901	20	20
560,59138	54,08903	51,0387	20	20
561,09165	54,13954	50,96046	20	20
561,60436	54,19004	50,88888	20	20
562,0991	54,24054	50,81475	20	20
562,61244	54,29105	50,73525	20	20
563,1227	54,34155	50,67123	20	20
563,62478	54,39205	50,59173	20	20
564,1413	54,44256	50,52107	20	20
564,66142	54,49306	50,45228	20	20
565,1798	54,54356	50,38698	20	20
565,67978	54,59407	50,32853	20	20
566,19125	54,64457	50,26466	20	20
566,70508	54,69507	50,1963	20	20
567,21725	54,74558	50,12696	20	20
567,72482	54,79608	50,06487	20	20
568,23776	54,84658	49,99884	20	20
568,7411	54,89709	49,93533	20	20
569,2465	54,94759	49,86979	20	20
569,75024	54,99809	49,80386	20	20
570,26378	55,0486	49,74684	20	20
570,75895	55,0991	49,67286	20	20
571,28802	55,1496	49,60806	20	20
571,78423	55,20011	49,53759	20	20
572,29256	55,25061	49,46565	20	20
572,79458	55,30111	49,39786	20	20
573,3051	55,35162	49,33368	20	20
573,8049	55,40212	49,27133	20	20
574,31538	55,45262	49,20767	20	20
574,8108	55,50313	49,14063	20	20
575,32505	55,55363	49,07097	20	20
575,82684	55,60413	49,00694	20	20
576,33353	55,65464	48,94812	20	20
576,83139	55,70514	48,87932	20	20
577,33787	55,75564	48,82579	20	20
577,83274	55,80615	48,76886	20	20
578,33427	55,85665	48,71001	20	20
578,84505	55,90715	48,65426	20	20
579,33898	55,95766	48,58838	20	20
579,8459	56,00816	48,52901	20	20
580,35358	56,05866	48,46058	20	20
580,8434	56,10917	48,40394	20	20
581,34982	56,15967	48,34008	20	20
581,84575	56,21017	48,27885	20	20
582,35731	56,26068	48,22273	20	20
582,84726	56,31118	48,15624	20	20
583,35278	56,36168	48,08913	20	20
583,86611	56,41219	48,02605	20	20
584,35859	56,46269	47,96425	20	20
584,88542	56,51319	47,89622	20	20
585,39052	56,5637	47,83702	20	20
585,90098	56,6142	47,78947	20	20
586,39561	56,6647	47,72675	20	20
586,90127	56,71521	47,6739	20	20
587,41049	56,76571	47,62002	20	20
587,90227	56,81621	47,56411	20	20
588,40698	56,86672	47,50357	20	20
588,92082	56,91722	47,4521	20	20
589,415	56,96772	47,39347	20	20
589,92297	57,01823	47,33496	20	20
590,42134	57,06873	47,26264	20	20
590,92214	57,11923	47,20583	20	20
591,43045	57,16974	47,15335	20	20
591,93351	57,22024	47,10119	20	20
592,43707	57,27074	47,03946	20	20
592,94994	57,32125	46,98138	20	20
593,46333	57,37175	46,93343	20	20
593,9549	57,42225	46,87022	20	20
594,47588	57,47276	46,81186	20	20
594,98073	57,52326	46,75056	20	20
595,48607	57,57376	46,69936	20	20
595,99699	57,62427	46,63791	20	20
596,50055	57,67477	46,58769	20	20
597,00835	57,72527	46,52632	20	20
597,50971	57,77578	46,46675	20	20
598,01735	57,82628	46,41147	20	20
598,53741	57,87678	46,35325	20	20
599,04132	57,92729	46,2918	20	20
599,54843	57,97779	46,2371	20	20
600,06018	58,02829	46,17268	20	20
600,55824	58,0788	46,1082	20	20
601,06869	58,1293	46,04412	20	20
601,57485	58,1798	45,98145	20	20
602,078	58,2303	45,91883	20	20
602,58719	58,28081	45,85847	20	20
603,10931	58,33131	45,80572	20	20
603,59766	58,38181	45,7477	20	20
604,09419	58,43232	45,68745	20	20
604,60963	58,48282	45,63583	20	20
605,12069	58,53332	45,58302	20	20
605,62039	58,58383	45,5274	20	20
606,12606	58,63433	45,46639	20	20
606,62853	58,68483	45,41393	20	20
607,13536	58,73534	45,3551	20	20
607,64545	58,78584	45,29992	20	20
608,14781	58,83634	45,2382	20	20
608,64663	58,88685	45,18606	20	20
609,15563	58,93735	45,13054	20	20
609,65546	58,98785	45,07261	20	20
610,14902	59,03836	45,01207	20	20
610,65287	59,08886	44,95751	20	20
611,15428	59,13936	44,89908	20	20
611,66263	59,18987	44,84068	20	20
612,17344	59,24037	44,77628	20	20
612,66872	59,29087	44,71671	20	20
613,17323	59,34138	44,66377	20	20
613,68264	59,39188	44,6065	20	20
614,16955	59,44238	44,5424	20	20
614,68714	59,49289	44,49079	20	20
615,18926	59,54339	44,42348	20	20
615,68974	59,59389	44,35726	20	20
616,19566	59,6444	44,29189	20	20
616,69702	59,6949	44,22415	20	20
617,20785	59,7454	44,16096	20	20
617,70864	59,79591	44,10138	20	20
618,2161	59,84641	44,04911	20	20
618,70555	59,89691	43,98872	20	20
619,22025	59,94742	43,94216	20	20
619,71855	59,99792	43,88043	20	20
620,2291	60,04842	43,83126	20	20
620,72914	60,09893	43,77362	20	20
621,22924	60,14943	43,70869	20	20
621,74637	60,19993	43,65645	20	20
622,24756	60,25044	43,59513	20	20
622,75141	60,30094	43,5385	20	20
623,25637	60,35144	43,47151	20	20
623,75875	60,40195	43,42091	20	20
624,26273	60,45245	43,35688	20	20
624,76754	60,50295	43,31146	20	20
625,26835	60,55346	43,25311	20	20
625,77712	60,60396	43,20087	20	20
626,28274	60,65446	43,14557	20	20
626,78653	60,70497	43,08015	20	20
627,28931	60,75547	43,03343	20	20
627,78963	60,80597	42,97659	20	20
628,2938	60,85648	42,91952	20	20
628,80302	60,90698	42,86027	20	20
629,31404	60,95748	42,79673	20	20
629,80479	61,00799	42,72987	20	20
630,31854	61,05849	42,66182	20	20
630,8147	61,10899	42,59647	20	20
631,31769	61,1595	42,54443	20	20
631,82598	61,21	42,48454	20	20
632,32377	61,2605	42,43583	20	20
632,83469	61,31101	42,38229	20	20
633,33709	61,36151	42,32947	20	20
633,84052	61,41201	42,26953	20	20
634,34185	61,46252	42,21791	20	20
634,85018	61,51302	42,16711	20	20
635,35538	61,56352	42,10827	20	20
635,86712	61,61403	42,05336	20	20
636,37511	61,66453	41,99913	20	20
636,87965	61,71503	41,94587	20	20
637,36465	61,76554	41,89108	20	20
637,88731	61,81604	41,83301	20	20
638,37591	61,86654	41,78513	20	20
638,89579	61,91705	41,72973	20	20
639,40882	61,96755	41,67541	20	20
639,90953	62,01805	41,62348	20	20
640,42068	62,06856	41,56342	20	20
640,93766	62,11906	41,51393	20	20
641,4261	62,16956	41,4526	20	20
641,94365	62,22007	41,40841	20	20
642,4473	62,27057	41,35046	20	20
642,95431	62,32107	41,30271	20	20
643,44831	62,37158	41,24742	20	20
643,97088	62,42208	41,19401	20	20
644,47991	62,47258	41,13927	20	20
644,98932	62,52309	41,08878	20	20
645,49281	62,57359	41,0304	20	20
645,99487	62,62409	40,97365	20	20
646,4989	62,6746	40,92057	20	20
647,01372	62,7251	40,86471	20	20
647,52061	62,7756	40,80952	20	20
648,03335	62,82611	40,75482	20	20
648,5351	62,87661	40,70126	20	20
649,02988	62,92711	40,64542	20	20
649,5438	62,97762	40,58671	20	20
650,05314	63,02812	40,53027	20	20
650,56589	63,07862	40,46677	20	20
651,06085	63,12913	40,41907	20	20
651,56988	63,17963	40,35691	20	20
652,0714	63,23013	40,30368	20	20
652,57736	63,28063	40,25373	20	20
653,0843	63,33114	40,19206	20	20
653,58642	63,38164	40,13227	20	20
654,08945	63,43214	40,08264	20	20
654,59194	63,48265	40,03156	20	20
655,10344	63,53315	39,97309	20	20
655,60661	63,58365	39,91797	20	20
656,10524	63,63416	39,86229	20	20
656,60512	63,68466	39,81203	20	20
657,11393	63,73516	39,74792	20	20
657,6146	63,78567	39,68661	20	20
658,12667	63,83617	39,62358	20	20
658,63017	63,88667	39,56742	20	20
659,1254	63,93718	39,5054	20	20
659,61567	63,98768	39,45277	20	20
660,13292	64,03818	39,39478	20	20
660,63442	64,08869	39,33999	20	20
661,13931	64,13919	39,28789	20	20
661,65189	64,18969	39,23612	20	20
662,15714	64,2402	39,18	20	20
662,64443	64,2907	39,12408	20	20
663,15874	64,3412	39,0741	20	20
663,65943	64,39171	39,01929	20	20
664,16415	64,44221	38,96082	20	20
664,66544	64,49271	38,9101	20	20
665,17406	64,54322	38,84833	20	20
665,68095	64,59372	38,79096	20	20
666,18536	64,64422	38,7362	20	20
666,68159	64,69473	38,68251	20	20
667,18801	64,74523	38,62847	20	20
667,68439	64,79573	38,57434	20	20
668,20022	64,84624	38,52245	20	20
668,69778	64,89674	38,47188	20	20
669,20466	64,94724	38,42209	20	20
669,70504	64,99775	38,37012	20	20
670,22709	65,04825	38,31329	20	20
670,71536	65,09875	38,248	20	20
671,2154	65,14926	38,20179	20	20
671,72395	65,19976	38,14797	20	20
672,23661	65,25026	38,0934	20	20
672,75104	65,30077	38,03439	20	20
673,24902	65,35127	37,98333	20	20
673,75986	65,40177	37,93587	20	20
674,25536	65,45228	37,88616	20	20
674,76578	65,50278	37,83624	20	20
675,27049	65,55328	37,7837	20	20
675,77345	65,60379	37,733	20	20
676,30434	65,65429	37,66973	20	20
676,78304	65,70479	37,62523	20	20
677,2865	65,7553	37,57608	20	20
677,78837	65,8058	37,51696	20	20
678,28679	65,8563	37,46484	20	20
678,80841	65,90681	37,4068	20	20
679,31737	65,95731	37,3525	20	20
679,82311	66,00781	37,30301	20	20
680,33184	66,05832	37,24967	20	20
680,83623	66,10882	37,19538	20	20
681,34357	66,15932	37,14266	20	20
681,84726	66,20983	37,08825	20	20
682,3581	66,26033	37,03351	20	20
682,86296	66,31083	36,98433	20	20
683,37612	66,36134	36,92181	20	20
683,87641	66,41184	36,87874	20	20
684,37563	66,46234	36,82501	20	20
684,88862	66,51285	36,7686	20	20
685,4058	66,56335	36,72383	20	20
685,90826	66,61385	36,6743	20	20
686,4186	66,66436	36,62421	20	20
686,91561	66,71486	36,5765	20	20
687,41398	66,76536	36,52442	20	20
687,92861	66,81587	36,47728	20	20
688,43414	66,86637	36,42996	20	20
688,94068	66,91687	36,38846	20	20
689,45461	66,96738	36,35534	20	20
689,97103	67,01788	36,3248	20	20
690,47695	67,06838	36,30365	20	20
690,99809	67,11889	36,28336	20	20
691,49487	67,16939	36,26129	20	20
691,99195	67,21989	36,25029	20	20
692,47743	67,2704	36,23627	20	20
692,95259	67,3209	36,23556	20	20
693,43186	67,3714	36,25083	20	20
693,90072	67,42191	36,28095	20	20
694,38543	67,47241	36,345	20	20
694,84626	67,52291	36,42085	20	20
695,33166	67,57342	36,50193	20	20
695,82193	67,62392	36,59366	20	20
696,29785	67,67442	36,66736	20	20
696,78379	67,72493	36,74808	20	20
697,26668	67,77543	36,81054	20	20
697,73204	67,82593	36,85937	20	20
698,23813	67,87644	36,89694	20	20
698,72642	67,92694	36,93086	20	20
699,22395	67,97744	36,95974	20	20
699,71329	68,02795	36,99712	20	20
700,22324	68,07845	37,01364	20	20
700,70024	68,12895	37,03591	20	20
701,20451	68,17946	37,05812	20	20
701,70056	68,22996	37,0798	20	20
702,20352	68,28046	37,09959	20	20
702,70343	68,33096	37,11457	20	20
703,21565	68,38147	37,13644	20	20
703,71312	68,43197	37,15369	20	20
704,24289	68,48247	37,16311	20	20
704,76098	68,53298	37,17562	20	20
705,2804	68,58348	37,18856	20	20
705,79549	68,63398	37,19789	20	20
706,32276	68,68449	37,20753	20	20
706,84854	68,73499	37,21276	20	20
707,37476	68,78549	37,21911	20	20
707,89243	68,836	37,22523	20	20
708,41959	68,8865	37,23074	20	20
708,95723	68,937	37,23455	20	20
709,47621	68,98751	37,23838	20	20
710,01202	69,03801	37,24342	20	20
710,53332	69,08851	37,24755	20	20
711,05745	69,13902	37,25173	20	20
711,58607	69,18952	37,25341	20	20
712,11824	69,24002	37,25341	20	20
712,63999	69,29053	37,2534	20	20
713,16082	69,34103	37,25423	20	20
713,68985	69,39153	37,25423	20	20
714,20447	69,44204	37,25424	20	20
714,72481	69,49254	37,25505	20	20
715,25553	69,54304	37,25505	20	20
715,77178	69,59355	37,25506	20	20
716,28339	69,64405	37,25587	20	20
716,78932	69,69455	37,25617	20	20
717,29575	69,74506	37,25994	20	20
717,81801	69,79556	37,26238	20	20
718,3406	69,84606	37,26374	20	20
718,85201	69,89657	37,26476	20	20
719,35821	69,94707	37,26712	20	20
719,86427	69,99757	37,26953	20	20
720,37505	70,04808	37,27129	20	20
720,87115	70,09858	37,27309	20	20
721,37932	70,14908	37,27464	20	20
721,87871	70,19959	37,27552	20	20
722,3859	70,25009	37,27716	20	20
722,89218	70,30059	37,27878	20	20
723,3891	70,3511	37,28048	20	20
723,89436	70,4016	37,28123	20	20
724,38296	70,4521	37,28125	20	20
724,8837	70,50261	37,28205	20	20
725,38506	70,55311	37,28207	20	20
725,87835	70,60361	37,28207	20	20
726,38584	70,65412	37,28164	20	20
726,88568	70,70462	37,26898	20	20
727,38834	70,75512	37,26568	20	20
727,89565	70,80563	37,26727	20	20
728,38376	70,85613	37,26834	20	20
728,89347	70,90663	37,26839	20	20
729,39471	70,95714	37,26808	20	20
729,88493	71,00764	37,26721	20	20
730,39006	71,05814	37,2673	20	20
730,88926	71,10865	37,266	20	20
731,38886	71,15915	37,2584	20	20
731,89138	71,20965	37,25588	20	20
732,38961	71,26016	37,25423	20	20
732,88875	71,31066	37,25338	20	20
733,39479	71,36116	37,25251	20	20
733,89511	71,41167	37,24899	20	20
734,40595	71,46217	37,24438	20	20
734,90669	71,51267	37,24284	20	20
735,40831	71,56318	37,24023	20	20
735,91822	71,61368	37,24054	20	20
736,41982	71,66418	37,24367	20	20
736,92713	71,71469	37,24266	20	20
737,43972	71,76519	37,24203	20	20
737,95078	71,81569	37,23991	20	20
738,44778	71,8662	37,23642	20	20
738,95697	71,9167	37,23399	20	20
739,46806	71,9672	37,23216	20	20
739,97406	72,01771	37,22756	20	20
740,48905	72,06821	37,22325	20	20
740,9908	72,11871	37,21828	20	20
741,5076	72,16922	37,21417	20	20
742,00808	72,21972	37,21082	20	20
742,52723	72,27022	37,21001	20	20
743,02429	72,32073	37,20835	20	20
743,53406	72,37123	37,20242	20	20
744,03317	72,42173	37,19678	20	20
744,54735	72,47224	37,19428	20	20
745,05736	72,52274	37,19169	20	20
745,56305	72,57324	37,18845	20	20
746,06296	72,62375	37,18431	20	20
746,57227	72,67425	37,18016	20	20
747,08683	72,72475	37,1756	20	20
747,58362	72,77526	37,17193	20	20
748,09075	72,82576	37,16897	20	20
748,60053	72,87626	37,16392	20	20
749,10454	72,92677	37,15637	20	20
749,60787	72,97727	37,15121	20	20
750,11971	73,02777	37,14248	20	20
750,61614	73,07828	37,13254	20	20
751,12518	73,12878	37,1281	20	20
751,62811	73,17928	37,12737	20	20
752,12677	73,22979	37,12323	20	20
752,63189	73,28029	37,11825	20	20
753,15404	73,33079	37,11244	20	20
753,63744	73,38129	37,10745	20	20
754,13802	73,4318	37,10165	20	20
754,64045	73,4823	37,0987	20	20
755,1403	73,5328	37,09588	20	20
755,64606	73,58331	37,08792	20	20
756,13914	73,63381	37,07947	20	20
756,64374	73,68431	37,07253	20	20
757,14333	73,73482	37,06356	20	20
757,65121	73,78532	37,05481	20	20
758,15744	73,83582	37,04691	20	20
758,65562	73,88633	37,03856	20	20
759,16363	73,93683	37,02959	20	20
759,66568	73,98733	37,02132	20	20
760,17229	74,03784	37,01246	20	20
760,66762	74,08834	37,00079	20	20
761,18579	74,13884	36,99391	20	20
761,67516	74,18935	36,98821	20	20
762,18655	74,23985	36,98156	20	20
762,68281	74,29035	36,97247	20	20
763,19036	74,34086	36,96418	20	20
763,69446	74,39136	36,95657	20	20
764,20428	74,44186	36,94518	20	20
764,69663	74,49237	36,93526	20	20
765,19349	74,54287	36,92825	20	20
765,68308	74,59337	36,92308	20	20
766,18455	74,64388	36,91783	20	20
766,68225	74,69438	36,91109	20	20
767,18125	74,74488	36,89983	20	20
767,67563	74,79539	36,88273	20	20
768,17956	74,84589	36,87418	20	20
768,68344	74,89639	36,8627	20	20
769,17627	74,9469	36,85036	20	20
769,68294	74,9974	36,83652	20	20
770,19679	75,0479	36,824	20	20
770,71385	75,09841	36,81394	20	20
771,21843	75,14891	36,80091	20	20
771,72531	75,19941	36,78522	20	20
772,2262	75,24992	36,77518	20	20
772,74327	75,30042	36,76695	20	20
773,25242	75,35092	36,75955	20	20
773,75407	75,40143	36,75456	20	20
774,26486	75,45193	36,7425	20	20
774,78598	75,50243	36,72955	20	20
775,30341	75,55294	36,71766	20	20
775,83086	75,60344	36,70311	20	20
776,34899	75,65394	36,68106	20	20
776,84729	75,70445	36,67088	20	20
777,3618	75,75495	36,65848	20	20
777,86827	75,80545	36,64201	20	20
778,38225	75,85596	36,62492	20	20
778,88619	75,90646	36,6088	20	20
779,40027	75,95696	36,58643	20	20
779,91895	76,00747	36,57738	20	20
780,42631	76,05797	36,55654	20	20
780,94054	76,10847	36,5398	20	20
781,47317	76,15898	36,5217	20	20
781,9752	76,20948	36,49677	20	20
782,49483	76,25998	36,48365	20	20
782,99706	76,31049	36,47195	20	20
783,50269	76,36099	36,45221	20	20
783,99669	76,41149	36,42502	20	20
784,50464	76,462	36,41178	20	20
785,01166	76,5125	36,38986	20	20
785,52637	76,563	36,36822	20	20
786,00656	76,61351	36,34696	20	20
786,51731	76,66401	36,32758	20	20
787,01087	76,71451	36,3064	20	20
787,51782	76,76502	36,2851	20	20
788,00576	76,81552	36,25802	20	20
788,509	76,86602	36,24314	20	20
789,00038	76,91653	36,22503	20	20
789,51287	76,96703	36,20956	20	20
790,01226	77,01753	36,18118	20	20
790,52609	77,06804	36,16881	20	20
791,01638	77,11854	36,14602	20	20
791,52195	77,16904	36,11778	20	20
792,01035	77,21955	36,11448	20	20
792,50843	77,27005	36,09466	20	20
793,01567	77,32055	36,08198	20	20
793,51074	77,37106	36,06067	20	20
794,01839	77,42156	36,03881	20	20
794,51955	77,47206	36,01571	20	20
795,0227	77,52257	35,98251	20	20
795,52139	77,57307	35,96541	20	20
796,03598	77,62357	35,93945	20	20
796,53125	77,67408	35,90827	20	20
797,03675	77,72458	35,88778	20	20
797,54949	77,77508	35,86627	20	20
798,04787	77,82559	35,83437	20	20
798,54642	77,87609	35,82252	20	20
799,05901	77,92659	35,80689	20	20
799,55838	77,9771	35,77719	20	20
800,06416	78,0276	35,76111	20	20
800,57032	78,0781	35,73903	20	20
801,08326	78,12861	35,71043	20	20
801,59332	78,17911	35,69545	20	20
802,09522	78,22961	35,66502	20	20
802,60004	78,28012	35,63438	20	20
803,11285	78,33062	35,60877	20	20
803,62691	78,38112	35,58763	20	20
804,12491	78,43162	35,55777	20	20
804,63605	78,48213	35,52937	20	20
805,14252	78,53263	35,49808	20	20
805,65457	78,58313	35,47115	20	20
806,15182	78,63364	35,43325	20	20
806,65533	78,68414	35,4156	20	20
807,17269	78,73464	35,38591	20	20
807,68145	78,78515	35,36315	20	20
808,19379	78,83565	35,33562	20	20
808,69915	78,88615	35,30557	20	20
809,20267	78,93666	35,27095	20	20
809,71187	78,98716	35,24993	20	20
810,20583	79,03766	35,21957	20	20
810,71851	79,08817	35,19144	20	20
811,21974	79,13867	35,16193	20	20
811,74115	79,18917	35,1349	20	20
812,23187	79,23968	35,1056	20	20
812,74785	79,29018	35,08241	20	20
813,25332	79,34068	35,05102	20	20
813,75672	79,39119	35,01789	20	20
814,267	79,44169	34,98398	20	20
814,7709	79,49219	34,95294	20	20
815,26623	79,5427	34,91672	20	20
815,76444	79,5932	34,88876	20	20
816,27734	79,6437	34,85746	20	20
816,78298	79,69421	34,82695	20	20
817,27741	79,74471	34,79652	20	20
817,79287	79,79521	34,75861	20	20
818,2953	79,84572	34,73014	20	20
818,7906	79,89622	34,69645	20	20
819,29376	79,94672	34,66338	20	20
819,79461	79,99723	34,63026	20	20
820,29195	80,04773	34,59802	20	20
820,79401	80,09823	34,56179	20	20
821,30698	80,14874	34,53533	20	20
821,80772	80,19924	34,50149	20	20
822,3044	80,24974	34,47008	20	20
822,81041	80,30025	34,43801	20	20
823,31434	80,35075	34,40993	20	20
823,82202	80,40125	34,38724	20	20
824,29582	80,45176	34,36007	20	20
824,83337	80,50226	34,32767	20	20
825,3348	80,55276	34,29147	20	20
825,83021	80,60327	34,26402	20	20
826,33715	80,65377	34,23337	20	20
826,83617	80,70427	34,20015	20	20
827,33886	80,75478	34,17138	20	20
827,84956	80,80528	34,13334	20	20
828,35861	80,85578	34,10646	20	20
828,87043	80,90629	34,06959	20	20
829,38173	80,95679	34,03675	20	20
829,87306	81,00729	34,00061	20	20
830,38518	81,0578	33,96526	20	20
830,87899	81,1083	33,91983	20	20
831,39763	81,1588	33,89328	20	20
831,89837	81,20931	33,86081	20	20
832,40311	81,25981	33,82415	20	20
832,89499	81,31031	33,79577	20	20
833,41034	81,36082	33,76739	20	20
833,91789	81,41132	33,73043	20	20
834,42391	81,46182	33,70186	20	20
834,93431	81,51233	33,6681	20	20
835,43915	81,56283	33,62957	20	20
835,94086	81,61333	33,59859	20	20
836,45411	81,66384	33,5757	20	20
836,95797	81,71434	33,54121	20	20
837,47376	81,76484	33,51145	20	20
837,96713	81,81535	33,47485	20	20
838,4813	81,86585	33,43447	20	20
838,98394	81,91635	33,39135	20	20
839,48986	81,96686	33,36431	20	20
840,0054	82,01736	33,33114	20	20
840,50439	82,06786	33,28556	20	20
841,00789	82,11837	33,25532	20	20
841,50976	82,16887	33,21882	20	20
842,01879	82,21937	33,18026	20	20
842,52177	82,26988	33,1475	20	20
843,03375	82,32038	33,11036	20	20
843,53065	82,37088	33,07031	20	20
844,03651	82,42139	33,03919	20	20
844,55069	82,47189	33,00339	20	20
845,05259	82,52239	32,97209	20	20
845,55671	82,5729	32,94216	20	20
846,06233	82,6234	32,90677	20	20
846,56433	82,6739	32,87568	20	20
847,07174	82,72441	32,83913	20	20
847,57606	82,77491	32,79888	20	20
848,08538	82,82541	32,75504	20	20
848,58556	82,87592	32,71282	20	20
849,0913	82,92642	32,6746	20	20
849,58945	82,97692	32,63459	20	20
850,0974	83,02743	32,59156	20	20
850,59602	83,07793	32,54463	20	20
851,11132	83,12843	32,50718	20	20
851,62602	83,17894	32,46956	20	20
852,13048	83,22944	32,4306	20	20
852,63244	83,27994	32,3933	20	20
853,13936	83,33045	32,35296	20	20
853,64314	83,38095	32,31458	20	20
854,1503	83,43145	32,27575	20	20
854,65885	83,48195	32,2308	20	20
855,16092	83,53246	32,20114	20	20
855,67045	83,58296	32,16722	20	20
856,1707	83,63346	32,12993	20	20
856,67146	83,68397	32,08174	20	20
857,17375	83,73447	32,04715	20	20
857,69206	83,78497	32,0061	20	20
858,19082	83,83548	31,96338	20	20
858,68527	83,88598	31,92288	20	20
859,19326	83,93648	31,88065	20	20
859,70372	83,98699	31,83934	20	20
860,20942	84,03749	31,80382	20	20
860,71296	84,08799	31,76475	20	20
861,21873	84,1385	31,72242	20	20
861,72469	84,189	31,68956	20	20
862,22645	84,2395	31,64935	20	20
862,72707	84,29001	31,61528	20	20
863,24119	84,34051	31,57616	20	20
863,74319	84,39101	31,53915	20	20
864,24305	84,44152	31,49574	20	20
864,74713	84,49202	31,45657	20	20
865,25423	84,54252	31,41532	20	20
865,75623	84,59303	31,37532	20	20
866,25719	84,64353	31,33669	20	20
866,75914	84,69403	31,29901	20	20
867,26449	84,74454	31,25407	20	20
867,76063	84,79504	31,20375	20	20
868,27403	84,84554	31,14956	20	20
868,789	84,89605	31,10585	20	20
869,29295	84,94655	31,05363	20	20
869,79798	84,99705	31,01154	20	20
870,29895	85,04756	30,95399	20	20
870,7905	85,09806	30,91835	20	20
871,30449	85,14856	30,87702	20	20
871,81933	85,19907	30,8331	20	20
872,32564	85,24957	30,79003	20	20
872,83676	85,30007	30,75213	20	20
873,32777	85,35058	30,70659	20	20
873,84128	85,40108	30,66185	20	20
874,34725	85,45158	30,61053	20	20
874,84949	85,50209	30,5592	20	20
875,35794	85,55259	30,51848	20	20
875,86665	85,60309	30,47004	20	20
876,36407	85,6536	30,43003	20	20
876,87224	85,7041	30,37491	20	20
877,37468	85,7546	30,32247	20	20
877,88572	85,80511	30,27497	20	20
878,38134	85,85561	30,22757	20	20
878,88907	85,90611	30,17306	20	20
879,39797	85,95662	30,11832	20	20
879,89978	86,00712	30,06553	20	20
880,40941	86,05762	30,01193	20	20
880,92164	86,10813	29,95164	20	20
881,41446	86,15863	29,90397	20	20
881,92838	86,20913	29,84441	20	20
882,42645	86,25964	29,79789	20	20
882,93224	86,31014	29,7423	20	20
883,43263	86,36064	29,68253	20	20
883,93141	86,41115	29,62772	20	20
884,44014	86,46165	29,55538	20	20
884,951	86,51215	29,49381	20	20
885,45081	86,56266	29,4412	20	20
885,95617	86,61316	29,3822	20	20
886,46675	86,66366	29,33476	20	20
886,96526	86,71417	29,28665	20	20
887,48528	86,76467	29,22571	20	20
887,97988	86,81517	29,16601	20	20
888,49126	86,86568	29,10325	20	20
888,99048	86,91618	29,03659	20	20
889,4984	86,96668	28,97207	20	20
890,00882	87,01719	28,90381	20	20
890,50681	87,06769	28,83702	20	20
891,01077	87,11819	28,76862	20	20
891,51773	87,1687	28,70487	20	20
892,019	87,2192	28,64035	20	20
892,539	87,2697	28,56678	20	20
893,03815	87,32021	28,50468	20	20
893,54359	87,37071	28,43787	20	20
894,03773	87,42121	28,37639	20	20
894,55515	87,47172	28,3111	20	20
895,05168	87,52222	28,23964	20	20
895,55928	87,57272	28,16714	20	20
896,0595	87,62323	28,09522	20	20
896,56529	87,67373	28,01675	20	20
897,06932	87,72423	27,93731	20	20
897,57323	87,77474	27,85913	20	20
898,08531	87,82524	27,78005	20	20
898,5911	87,87574	27,69962	20	20
899,09526	87,92625	27,62397	20	20
899,60378	87,97675	27,5489	20	20
900,1054	88,02725	27,47142	20	20
900,60629	88,07776	27,3944	20	20
901,13268	88,12826	27,31577	20	20
901,602	88,17876	27,23981	20	20
902,11662	88,22927	27,15531	20	20
902,62568	88,27977	27,07236	20	20
903,13197	88,33027	26,98812	20	20
903,64038	88,38078	26,90579	20	20
904,1402	88,43128	26,82374	20	20
904,64344	88,48178	26,73727	20	20
905,15537	88,53228	26,65217	20	20
905,65678	88,58279	26,568	20	20
906,16198	88,63329	26,48608	20	20
906,6597	88,68379	26,4017	20	20
907,17593	88,7343	26,31591	20	20
907,68554	88,7848	26,22883	20	20
908,18795	88,8353	26,13418	20	20
908,68843	88,88581	26,0505	20	20
909,19926	88,93631	25,95645	20	20
909,71607	88,98681	25,86355	20	20
910,20955	89,03732	25,76649	20	20
910,71675	89,08782	25,67677	20	20
911,22357	89,13832	25,58673	20	20
911,73563	89,18883	25,50046	20	20
912,23347	89,23933	25,41138	20	20
912,74233	89,28983	25,31749	20	20
913,24624	89,34034	25,22565	20	20
913,75896	89,39084	25,14219	20	20
914,25679	89,44134	25,05635	20	20
914,76088	89,49185	24,95798	20	20
915,26815	89,54235	24,86197	20	20
915,7651	89,59285	24,7681	20	20
916,28955	89,64336	24,67405	20	20
916,7903	89,69386	24,58121	20	20
917,29352	89,74436	24,48454	20	20
917,79281	89,79487	24,38429	20	20
918,30755	89,84537	24,28839	20	20
918,80918	89,89587	24,18573	20	20
919,32177	89,94638	24,09707	20	20
919,82014	89,99688	23,99927	20	20
920,32131	90,04738	23,89722	20	20
920,8352	90,09789	23,79728	20	20
921,33753	90,14839	23,70086	20	20
921,83379	90,19889	23,59761	20	20
922,35009	90,2494	23,4971	20	20
922,84698	90,2999	23,39537	20	20
923,3542	90,3504	23,29604	20	20
923,86102	90,40091	23,19574	20	20
924,35568	90,45141	23,09345	20	20
924,86151	90,50191	22,98751	20	20
925,36958	90,55242	22,87819	20	20
925,87684	90,60292	22,77445	20	20
926,37941	90,65342	22,65797	20	20
926,88243	90,70393	22,5223	20	20
927,40347	90,75443	22,39734	20	20
927,88989	90,80493	22,28269	20	20
928,4048	90,85544	22,17791	20	20
928,91266	90,90594	22,07746	20	20
929,41951	90,95644	21,98176	20	20
929,9201	91,00695	21,88673	20	20
930,43159	91,05745	21,7758	20	20
930,93892	91,10795	21,66519	20	20
931,43999	91,15846	21,55991	20	20
931,94038	91,20896	21,43141	20	20
932,45359	91,25946	21,28537	20	20
932,96165	91,30997	21,16864	20	20
933,45945	91,36047	21,06883	20	20
933,95637	91,41097	20,96927	20	20
934,47287	91,46148	20,86608	20	20
934,9876	91,51198	20,75438	20	20
935,48209	91,56248	20,63344	20	20
935,99912	91,61299	20,50067	20	20
936,48631	91,66349	20,35186	20	20
936,99611	91,71399	20,20163	20	20
937,49154	91,7645	20,08635	20	20
938,00706	91,815	19,98994	20	20
938,50854	91,8655	19,89263	20	20
939,01973	91,91601	19,78902	20	20
939,516	91,96651	19,67916	20	20
940,02542	92,01701	19,56812	20	20
940,52939	92,06752	19,45017	20	20
941,03921	92,11802	19,2815	20	20
941,54426	92,16852	19,12773	20	20
942,04712	92,21903	19,02561	20	20
942,55757	92,26953	18,92267	20	20
943,0523	92,32003	18,82236	20	20
943,56467	92,37054	18,69902	20	20
944,07451	92,42104	18,56628	20	20
944,57701	92,47154	18,41007	20	20
945,07658	92,52205	18,26369	20	20
945,57772	92,57255	18,14376	20	20
946,08937	92,62305	18,02243	20	20
946,5992	92,67356	17,89135	20	20
947,10692	92,72406	17,77437	20	20
947,6132	92,77456	17,64579	20	20
948,11149	92,82507	17,51791	20	20
948,62075	92,87557	17,38482	20	20
949,12678	92,92607	17,25492	20	20
949,63249	92,97658	17,1224	20	20
950,13501	93,02708	16,96777	20	20
950,63948	93,07758	16,82582	20	20
951,13955	93,12809	16,68189	20	20
951,66695	93,17859	16,53892	20	20
952,16065	93,22909	16,3913	20	20
952,66449	93,2796	16,25937	20	20
953,17894	93,3301	16,14853	20	20
953,68236	93,3806	16,03345	20	20
954,18236	93,43111	15,8661	20	20
954,69408	93,48161	15,71857	20	20
955,18632	93,53211	15,57977	20	20
955,69799	93,58261	15,46006	20	20
956,19885	93,63312	15,34683	20	20
956,70502	93,68362	15,22315	20	20
957,20935	93,73412	15,08067	20	20
957,71604	93,78463	14,91897	20	20
958,22409	93,83513	14,78867	20	20
958,72819	93,88563	14,68091	20	20
959,23209	93,93614	14,5752	20	20
959,74399	93,98664	14,45642	20	20
960,24428	94,03714	14,3438	20	20
960,75018	94,08765	14,22896	20	20
961,25446	94,13815	14,1191	20	20
961,75574	94,18865	13,99751	20	20
962,27405	94,23916	13,88117	20	20
962,77342	94,28966	13,77289	20	20
963,29047	94,34016	13,66217	20	20
963,78929	94,39067	13,5614	20	20
964,28536	94,44117	13,47789	20	20
964,79612	94,49167	13,38877	20	20
965,29867	94,54218	13,29448	20	20
965,81226	94,59268	13,19905	20	20
966,30001	94,64318	13,11584	20	20
966,81614	94,69369	13,02762	20	20
967,31489	94,74419	12,94266	20	20
967,81644	94,79469	12,86154	20	20
968,32155	94,8452	12,78038	20	20
968,82563	94,8957	12,7076	20	20
969,33737	94,9462	12,62717	20	20
969,83408	94,99671	12,54386	20	20
970,34521	95,04721	12,46786	20	20
970,84515	95,09771	12,39244	20	20
971,34689	95,14822	12,32614	20	20
971,86313	95,19872	12,26324	20	20
972,35446	95,24922	12,20213	20	20
972,86612	95,29973	12,14364	20	20
973,37345	95,35023	12,0883	20	20
973,87559	95,40073	12,02881	20	20
974,38045	95,45124	11,97806	20	20
974,8858	95,50174	11,92592	20	20
975,39448	95,55224	11,87528	20	20
975,89263	95,60275	11,82399	20	20
976,39789	95,65325	11,78017	20	20
976,89884	95,70375	11,73197	20	20
977,40973	95,75426	11,67642	20	20
977,91243	95,80476	11,6356	20	20
978,42261	95,85526	11,58789	20	20
978,91526	95,90577	11,54221	20	20
979,4306	95,95627	11,49934	20	20
979,92682	96,00677	11,46488	20	20
980,43756	96,05728	11,42771	20	20
980,94331	96,10778	11,39175	20	20
981,44424	96,15828	11,35614	20	20
981,95161	96,20879	11,32153	20	20
982,44846	96,25929	11,28902	20	20
982,964	96,30979	11,26004	20	20
983,47379	96,3603	11,22615	20	20
983,97063	96,4108	11,19165	20	20
984,47996	96,4613	11,1684	20	20
984,98083	96,51181	11,13888	20	20
985,4909	96,56231	11,10866	20	20
985,99303	96,61281	11,08096	20	20
986,49223	96,66332	11,05071	20	20
987,0082	96,71382	11,02659	20	20
987,50887	96,76432	10,9976	20	20
988,00909	96,81483	10,97266	20	20
988,51606	96,86533	10,95595	20	20
989,02244	96,91583	10,93627	20	20
989,52752	96,96634	10,9175	20	20
990,02686	97,01684	10,89352	20	20
990,53243	97,06734	10,87261	20	20
991,04091	97,11785	10,85513	20	20
991,54918	97,16835	10,83284	20	20
992,06129	97,21885	10,81239	20	20
992,58174	97,26936	10,79026	20	20
993,07948	97,31986	10,77105	20	20
993,57169	97,37036	10,74068	20	20
994,07875	97,42087	10,72729	20	20
994,57781	97,47137	10,70978	20	20
995,08018	97,52187	10,69423	20	20
995,56766	97,57238	10,67603	20	20
996,0771	97,62288	10,65705	20	20
996,5921	97,67338	10,63888	20	20
997,09292	97,72389	10,6223	20	20
997,60359	97,77439	10,60638	20	20
998,10801	97,82489	10,59448	20	20
998,61328	97,8754	10,58058	20	20
999,11722	97,9259	10,56977	20	20
999,6356	97,9764	10,56059	20	20
