##Temp./oC	Time/min	Mass/%	Gas Flow(purge1)/(ml/min)	Gas Flow(protective)/(ml/min)
26,582	0	100	20	20
26,59226	0,0505	99,99491	20	20
26,55439	0,10101	99,99152	20	20
26,53763	0,15151	99,98459	20	20
26,53272	0,20201	99,97803	20	20
26,51989	0,25252	99,96645	20	20
26,53563	0,30302	99,95397	20	20
26,5459	0,35352	99,93909	20	20
26,56815	0,40403	99,94661	20	20
26,60813	0,45453	99,94555	20	20
26,6694	0,50503	99,94274	20	20
26,73822	0,55554	99,92075	20	20
26,8171	0,60604	99,90912	20	20
26,91314	0,65654	99,8807	20	20
27,02048	0,70705	99,83947	20	20
27,17053	0,75755	99,8108	20	20
27,29783	0,80805	99,77268	20	20
27,46626	0,85856	99,74331	20	20
27,63209	0,90906	99,73281	20	20
27,80016	0,95956	99,71449	20	20
28,01037	1,01007	99,69871	20	20
28,23291	1,06057	99,69744	20	20
28,45471	1,11107	99,68693	20	20
28,69316	1,16158	99,66683	20	20
28,95026	1,21208	99,66324	20	20
29,21287	1,26258	99,65754	20	20
29,4593	1,31309	99,64033	20	20
29,754	1,36359	99,6343	20	20
30,05046	1,41409	99,62372	20	20
30,36614	1,4646	99,60539	20	20
30,67252	1,5151	99,59888	20	20
31,01461	1,5656	99,58537	20	20
31,3631	1,61611	99,58555	20	20
31,71713	1,66661	99,57727	20	20
32,07695	1,71711	99,5727	20	20
32,47415	1,76762	99,5592	20	20
32,87167	1,81812	99,55524	20	20
33,25492	1,86862	99,54529	20	20
33,68277	1,91913	99,54174	20	20
34,1065	1,96963	99,53141	20	20
34,55032	2,02013	99,52981	20	20
34,99153	2,07064	99,5171	20	20
35,42977	2,12114	99,5069	20	20
35,90605	2,17164	99,50937	20	20
36,37337	2,22215	99,50765	20	20
36,84834	2,27265	99,50106	20	20
37,35182	2,32315	99,48962	20	20
37,84958	2,37366	99,48528	20	20
38,36516	2,42416	99,48121	20	20
38,88217	2,47466	99,46809	20	20
39,40559	2,52516	99,45935	20	20
39,94328	2,57567	99,43796	20	20
40,49291	2,62617	99,44025	20	20
41,03362	2,67667	99,4337	20	20
41,60854	2,72718	99,42307	20	20
42,15655	2,77768	99,41213	20	20
42,72744	2,82818	99,39942	20	20
43,29611	2,87869	99,38818	20	20
43,88404	2,92919	99,37726	20	20
44,47258	2,97969	99,35792	20	20
45,06937	3,0302	99,35278	20	20
45,6704	3,0807	99,34585	20	20
46,27727	3,1312	99,3306	20	20
46,88626	3,18171	99,3225	20	20
47,49565	3,23221	99,3142	20	20
48,0989	3,28271	99,29414	20	20
48,7224	3,33322	99,28408	20	20
49,33086	3,38372	99,26261	20	20
49,94954	3,43422	99,24319	20	20
50,58541	3,48473	99,22531	20	20
51,2058	3,53523	99,20618	20	20
51,82921	3,58573	99,18734	20	20
52,45291	3,63624	99,16282	20	20
53,068	3,68674	99,13675	20	20
53,70076	3,73724	99,11189	20	20
54,33919	3,78775	99,07746	20	20
54,95329	3,83825	99,05095	20	20
55,58335	3,88875	99,01719	20	20
56,20423	3,93926	98,99557	20	20
56,82893	3,98976	98,96268	20	20
57,45638	4,04026	98,93032	20	20
58,0768	4,09077	98,90039	20	20
58,71098	4,14127	98,85928	20	20
59,3283	4,19177	98,82247	20	20
59,92344	4,24228	98,77529	20	20
60,54953	4,29278	98,73929	20	20
61,1644	4,34328	98,69679	20	20
61,7711	4,39379	98,65041	20	20
62,38854	4,44429	98,59969	20	20
63,00434	4,49479	98,5478	20	20
63,62359	4,5453	98,48881	20	20
64,21597	4,5958	98,43146	20	20
64,83146	4,6463	98,38193	20	20
65,41154	4,69681	98,3319	20	20
65,98376	4,74731	98,27043	20	20
66,59404	4,79781	98,22165	20	20
67,19949	4,84832	98,15054	20	20
67,77278	4,89882	98,07886	20	20
68,34188	4,94932	98,0151	20	20
68,93426	4,99983	97,94105	20	20
69,5175	5,05033	97,85905	20	20
70,08291	5,10083	97,79153	20	20
70,65445	5,15134	97,72055	20	20
71,21675	5,20184	97,64353	20	20
71,78125	5,25234	97,57047	20	20
72,3402	5,30285	97,49914	20	20
72,89825	5,35335	97,42877	20	20
73,45099	5,40385	97,35239	20	20
74,00356	5,45436	97,27999	20	20
74,55891	5,50486	97,19807	20	20
75,09662	5,55536	97,12147	20	20
75,63528	5,60587	97,04107	20	20
76,18279	5,65637	96,95872	20	20
76,71014	5,70687	96,8697	20	20
77,25268	5,75738	96,78966	20	20
77,78591	5,80788	96,70588	20	20
78,31925	5,85838	96,62521	20	20
78,83915	5,90889	96,54054	20	20
79,36802	5,95939	96,45728	20	20
79,89377	6,00989	96,37055	20	20
80,40225	6,0604	96,28983	20	20
80,91816	6,1109	96,2062	20	20
81,44665	6,1614	96,12853	20	20
81,96813	6,21191	96,036	20	20
82,48768	6,26241	95,94999	20	20
82,9886	6,31291	95,86325	20	20
83,49804	6,36342	95,7766	20	20
84,00327	6,41392	95,68894	20	20
84,51359	6,46442	95,60757	20	20
85,02282	6,51493	95,52548	20	20
85,53847	6,56543	95,43803	20	20
86,03045	6,61593	95,34483	20	20
86,54123	6,66644	95,2549	20	20
87,03866	6,71694	95,17024	20	20
87,55137	6,76744	95,08967	20	20
88,04469	6,81795	95,00219	20	20
88,53888	6,86845	94,91656	20	20
89,0643	6,91895	94,83151	20	20
89,5517	6,96946	94,74371	20	20
90,05061	7,01996	94,66052	20	20
90,55367	7,07046	94,56551	20	20
91,0456	7,12097	94,48483	20	20
91,54911	7,17147	94,40619	20	20
92,05076	7,22197	94,32314	20	20
92,54241	7,27248	94,22823	20	20
93,04501	7,32298	94,14064	20	20
93,54692	7,37348	94,06032	20	20
94,03989	7,42399	93,97623	20	20
94,54099	7,47449	93,88388	20	20
95,04829	7,52499	93,79865	20	20
95,53959	7,57549	93,71691	20	20
96,0256	7,626	93,64287	20	20
96,53387	7,6765	93,55888	20	20
97,02544	7,727	93,47734	20	20
97,54099	7,77751	93,39542	20	20
98,01507	7,82801	93,31479	20	20
98,53222	7,87851	93,21405	20	20
99,0349	7,92902	93,12899	20	20
99,52764	7,97952	93,04889	20	20
100,01224	8,03002	92,96479	20	20
100,51574	8,08053	92,89344	20	20
101,00011	8,13103	92,81686	20	20
101,50188	8,18153	92,74038	20	20
102,00762	8,23204	92,66512	20	20
102,50834	8,28254	92,59618	20	20
102,99399	8,33304	92,52238	20	20
103,50269	8,38355	92,44956	20	20
104,00556	8,43405	92,36943	20	20
104,50699	8,48455	92,29418	20	20
105,00038	8,53506	92,22419	20	20
105,49732	8,58556	92,16436	20	20
105,98944	8,63606	92,09249	20	20
106,49459	8,68657	92,0199	20	20
106,9851	8,73707	91,95449	20	20
107,48697	8,78757	91,89019	20	20
107,9896	8,83808	91,82409	20	20
108,49111	8,88858	91,75678	20	20
108,99178	8,93908	91,69461	20	20
109,4877	8,98959	91,62228	20	20
109,97591	9,04009	91,55365	20	20
110,47935	9,09059	91,49254	20	20
110,97475	9,1411	91,42796	20	20
111,47234	9,1916	91,36056	20	20
111,97635	9,2421	91,29596	20	20
112,4771	9,29261	91,23917	20	20
112,96883	9,34311	91,18672	20	20
113,46982	9,39361	91,13643	20	20
113,97297	9,44412	91,07827	20	20
114,46909	9,49462	91,02791	20	20
114,96893	9,54512	90,96803	20	20
115,47309	9,59563	90,9146	20	20
115,9827	9,64613	90,84839	20	20
116,47775	9,69663	90,78947	20	20
116,96706	9,74714	90,72898	20	20
117,46905	9,79764	90,66846	20	20
117,96932	9,84814	90,62699	20	20
118,4834	9,89865	90,57793	20	20
118,9866	9,94915	90,52232	20	20
119,48171	9,99965	90,46974	20	20
119,98114	10,05016	90,40787	20	20
120,49365	10,10066	90,35913	20	20
120,98529	10,15116	90,30741	20	20
121,49086	10,20167	90,2663	20	20
121,99046	10,25217	90,21851	20	20
122,48438	10,30267	90,17519	20	20
122,99419	10,35318	90,12676	20	20
123,50792	10,40368	90,08334	20	20
124,0042	10,45418	90,04467	20	20
124,50874	10,50469	90,00352	20	20
125,02477	10,55519	89,96184	20	20
125,52067	10,60569	89,91607	20	20
126,01792	10,6562	89,86998	20	20
126,52658	10,7067	89,82859	20	20
127,03297	10,7572	89,78556	20	20
127,54426	10,80771	89,74811	20	20
128,04744	10,85821	89,70924	20	20
128,56136	10,90871	89,66933	20	20
129,06903	10,95922	89,62352	20	20
129,55978	11,00972	89,58312	20	20
130,07541	11,06022	89,54494	20	20
130,58497	11,11073	89,5208	20	20
131,08977	11,16123	89,48236	20	20
131,59841	11,21173	89,4446	20	20
132,11755	11,26224	89,40008	20	20
132,61865	11,31274	89,37223	20	20
133,12999	11,36324	89,33945	20	20
133,636	11,41375	89,3007	20	20
134,13833	11,46425	89,27083	20	20
134,64816	11,51475	89,24093	20	20
135,15393	11,56526	89,21032	20	20
135,67229	11,61576	89,18011	20	20
136,17858	11,66626	89,1481	20	20
136,68311	11,71677	89,10801	20	20
137,20366	11,76727	89,08375	20	20
137,72186	11,81777	89,05193	20	20
138,227	11,86828	89,02129	20	20
138,73471	11,91878	88,9852	20	20
139,23939	11,96928	88,95473	20	20
139,75518	12,01979	88,91898	20	20
140,26784	12,07029	88,88247	20	20
140,77525	12,12079	88,85957	20	20
141,28954	12,1713	88,82379	20	20
141,80457	12,2218	88,80759	20	20
142,3098	12,2723	88,78168	20	20
142,80697	12,32281	88,74976	20	20
143,31929	12,37331	88,72705	20	20
143,83763	12,42381	88,6962	20	20
144,34723	12,47432	88,66436	20	20
144,86009	12,52482	88,64243	20	20
145,37336	12,57532	88,60806	20	20
145,88468	12,62583	88,58688	20	20
146,38104	12,67633	88,56698	20	20
146,89091	12,72683	88,54651	20	20
147,40449	12,77733	88,51984	20	20
147,91415	12,82784	88,50204	20	20
148,43235	12,87834	88,47699	20	20
148,93355	12,92884	88,45076	20	20
149,4414	12,97935	88,43305	20	20
149,95452	13,02985	88,41609	20	20
150,46649	13,08035	88,39578	20	20
150,96413	13,13086	88,37707	20	20
151,48884	13,18136	88,35171	20	20
151,98963	13,23186	88,3407	20	20
152,50516	13,28237	88,32491	20	20
153,02008	13,33287	88,30614	20	20
153,53242	13,38337	88,29178	20	20
154,027	13,43388	88,26688	20	20
154,53889	13,48438	88,25807	20	20
155,04758	13,53488	88,244	20	20
155,54801	13,58539	88,2271	20	20
156,0603	13,63589	88,21403	20	20
156,57199	13,68639	88,19953	20	20
157,06981	13,7369	88,1868	20	20
157,58038	13,7874	88,17201	20	20
158,08299	13,8379	88,15095	20	20
158,58373	13,88841	88,14108	20	20
159,10093	13,93891	88,1292	20	20
159,61093	13,98941	88,11889	20	20
160,1092	14,03992	88,10799	20	20
160,61448	14,09042	88,09693	20	20
161,11372	14,14092	88,08848	20	20
161,6258	14,19143	88,07918	20	20
162,12992	14,24193	88,06819	20	20
162,64111	14,29243	88,05166	20	20
163,13796	14,34294	88,04389	20	20
163,64532	14,39344	88,03776	20	20
164,15384	14,44394	88,02533	20	20
164,65512	14,49445	88,00946	20	20
165,16819	14,54495	87,99583	20	20
165,66829	14,59545	87,98524	20	20
166,17202	14,64596	87,97602	20	20
166,66716	14,69646	87,9675	20	20
167,16699	14,74696	87,95651	20	20
167,6744	14,79747	87,93959	20	20
168,17624	14,84797	87,93047	20	20
168,68282	14,89847	87,91458	20	20
169,18033	14,94898	87,89998	20	20
169,68084	14,99948	87,8873	20	20
170,17883	15,04998	87,87711	20	20
170,68793	15,10049	87,86779	20	20
171,20736	15,15099	87,8602	20	20
171,70053	15,20149	87,85252	20	20
172,17235	15,252	87,84506	20	20
172,69477	15,3025	87,83992	20	20
173,20134	15,353	87,83306	20	20
173,70819	15,40351	87,8245	20	20
174,20709	15,45401	87,81143	20	20
174,71003	15,50451	87,79751	20	20
175,21647	15,55502	87,78801	20	20
175,7172	15,60552	87,77946	20	20
176,21772	15,65602	87,77129	20	20
176,72523	15,70653	87,76184	20	20
177,21873	15,75703	87,75174	20	20
177,73105	15,80753	87,74321	20	20
178,24318	15,85804	87,73629	20	20
178,73549	15,90854	87,72465	20	20
179,24412	15,95904	87,71197	20	20
179,74385	16,00955	87,7009	20	20
180,24945	16,06005	87,69327	20	20
180,74515	16,11055	87,68649	20	20
181,26036	16,16106	87,68056	20	20
181,77761	16,21156	87,67113	20	20
182,26201	16,26206	87,6636	20	20
182,76688	16,31257	87,65342	20	20
183,29301	16,36307	87,63937	20	20
183,78967	16,41357	87,62753	20	20
184,29866	16,46408	87,62034	20	20
184,81102	16,51458	87,61287	20	20
185,29546	16,56508	87,60593	20	20
185,82844	16,61559	87,59964	20	20
186,32449	16,66609	87,59318	20	20
186,8382	16,71659	87,58721	20	20
187,33831	16,7671	87,58009	20	20
187,84187	16,8176	87,567	20	20
188,35924	16,8681	87,55619	20	20
188,87431	16,91861	87,54338	20	20
189,3824	16,96911	87,53227	20	20
189,88094	17,01961	87,52546	20	20
190,38525	17,07012	87,51613	20	20
190,88244	17,12062	87,50683	20	20
191,40458	17,17112	87,49408	20	20
191,90594	17,22163	87,48041	20	20
192,42297	17,27213	87,47143	20	20
192,93079	17,32263	87,46368	20	20
193,44335	17,37314	87,4542	20	20
193,93839	17,42364	87,44243	20	20
194,46344	17,47414	87,432	20	20
194,95282	17,52465	87,42213	20	20
195,47957	17,57515	87,41549	20	20
195,97479	17,62565	87,40437	20	20
196,47795	17,67616	87,39433	20	20
196,98574	17,72666	87,3841	20	20
197,50191	17,77716	87,37477	20	20
198,00401	17,82766	87,36629	20	20
198,50887	17,87817	87,35783	20	20
199,01095	17,92867	87,35018	20	20
199,51159	17,97917	87,34169	20	20
200,03482	18,02968	87,3332	20	20
200,54174	18,08018	87,32557	20	20
201,0376	18,13068	87,31625	20	20
201,54694	18,18119	87,30104	20	20
202,05191	18,23169	87,28932	20	20
202,5552	18,28219	87,28062	20	20
203,06851	18,3327	87,26616	20	20
203,57678	18,3832	87,25257	20	20
204,08181	18,4337	87,24014	20	20
204,58581	18,48421	87,22746	20	20
205,09198	18,53471	87,21851	20	20
205,59859	18,58521	87,21183	20	20
206,11426	18,63572	87,2052	20	20
206,6066	18,68622	87,19841	20	20
207,11468	18,73672	87,18792	20	20
207,61567	18,78723	87,17936	20	20
208,12164	18,83773	87,16877	20	20
208,63391	18,88823	87,15081	20	20
209,14083	18,93874	87,14186	20	20
209,63906	18,98924	87,13599	20	20
210,15927	19,03974	87,12754	20	20
210,6494	19,09025	87,11653	20	20
211,15383	19,14075	87,10552	20	20
211,64762	19,19125	87,09459	20	20
212,16333	19,24176	87,08254	20	20
212,67026	19,29226	87,07076	20	20
213,17193	19,34276	87,06076	20	20
213,66321	19,39327	87,04932	20	20
214,18668	19,44377	87,03667	20	20
214,69519	19,49427	87,0268	20	20
215,19972	19,54478	87,0183	20	20
215,69147	19,59528	87,00948	20	20
216,19891	19,64578	86,99796	20	20
216,70158	19,69629	86,9917	20	20
217,21479	19,74679	86,97974	20	20
217,72934	19,79729	86,96737	20	20
218,21202	19,8478	86,96235	20	20
218,72182	19,8983	86,95403	20	20
219,21813	19,9488	86,9457	20	20
219,73046	19,99931	86,93122	20	20
220,22313	20,04981	86,92187	20	20
220,73479	20,10031	86,91507	20	20
221,2357	20,15082	86,90915	20	20
221,74803	20,20132	86,90402	20	20
222,2483	20,25182	86,89799	20	20
222,75839	20,30233	86,88777	20	20
223,24805	20,35283	86,87601	20	20
223,76003	20,40333	86,86564	20	20
224,25844	20,45384	86,85522	20	20
224,76976	20,50434	86,8415	20	20
225,27289	20,55484	86,83167	20	20
225,78059	20,60535	86,82918	20	20
226,27999	20,65585	86,82521	20	20
226,79629	20,70635	86,81408	20	20
227,29745	20,75686	86,80237	20	20
227,80323	20,80736	86,79081	20	20
228,30202	20,85786	86,77804	20	20
228,80624	20,90837	86,76537	20	20
229,32312	20,95887	86,75001	20	20
229,82721	21,00937	86,73811	20	20
230,33187	21,05988	86,73048	20	20
230,83256	21,11038	86,72368	20	20
231,33789	21,16088	86,71347	20	20
231,84336	21,21139	86,70598	20	20
232,35531	21,26189	86,69501	20	20
232,86745	21,31239	86,67755	20	20
233,37169	21,3629	86,66531	20	20
233,86735	21,4134	86,65404	20	20
234,3943	21,4639	86,64131	20	20
234,89633	21,51441	86,62769	20	20
235,398	21,56491	86,61583	20	20
235,90888	21,61541	86,60568	20	20
236,40966	21,66592	86,59234	20	20
236,92131	21,71642	86,58267	20	20
237,41419	21,76692	86,57539	20	20
237,92743	21,81743	86,56731	20	20
238,43474	21,86793	86,55368	20	20
238,94285	21,91843	86,53973	20	20
239,4505	21,96894	86,5201	20	20
239,95745	22,01944	86,50571	20	20
240,46838	22,06994	86,49208	20	20
240,96835	22,12045	86,48021	20	20
241,47833	22,17095	86,4605	20	20
241,98769	22,22145	86,43952	20	20
242,47679	22,27196	86,4236	20	20
242,99438	22,32246	86,41066	20	20
243,49085	22,37296	86,39987	20	20
244,00478	22,42347	86,39092	20	20
244,52099	22,47397	86,37302	20	20
245,01161	22,52447	86,3626	20	20
245,51928	22,57498	86,35104	20	20
246,01921	22,62548	86,33765	20	20
246,51458	22,67598	86,32522	20	20
247,02717	22,72648	86,31413	20	20
247,52053	22,77699	86,30138	20	20
248,01851	22,82749	86,28863	20	20
248,53741	22,87799	86,2737	20	20
249,03901	22,9285	86,25807	20	20
249,55097	22,979	86,24969	20	20
250,06112	23,0295	86,23948	20	20
250,56007	23,08001	86,22765	20	20
251,06858	23,13051	86,21833	20	20
251,56396	23,18101	86,2073	20	20
252,06076	23,23152	86,19702	20	20
252,56556	23,28202	86,18284	20	20
253,07481	23,33252	86,1719	20	20
253,57779	23,38303	86,15188	20	20
254,09116	23,43353	86,14039	20	20
254,57959	23,48403	86,12835	20	20
255,09261	23,53454	86,1173	20	20
255,59241	23,58504	86,09968	20	20
256,09134	23,63554	86,08237	20	20
256,59283	23,68605	86,06171	20	20
257,10757	23,73655	86,04778	20	20
257,6113	23,78705	86,03468	20	20
258,11474	23,83756	86,01549	20	20
258,63203	23,88806	85,9994	20	20
259,1324	23,93856	85,98953	20	20
259,62949	23,98907	85,97526	20	20
260,13252	24,03957	85,95919	20	20
260,65176	24,09007	85,94138	20	20
261,13554	24,14058	85,92699	20	20
261,64246	24,19108	85,91262	20	20
262,15447	24,24158	85,88627	20	20
262,66214	24,29209	85,87466	20	20
263,16929	24,34259	85,85905	20	20
263,6729	24,39309	85,83679	20	20
264,18031	24,4436	85,81853	20	20
264,69224	24,4941	85,79486	20	20
265,18911	24,5446	85,77791	20	20
265,69555	24,59511	85,76147	20	20
266,20275	24,64561	85,73947	20	20
266,7045	24,69611	85,71969	20	20
267,20984	24,74662	85,70479	20	20
267,71449	24,79712	85,68064	20	20
268,21856	24,84762	85,6703	20	20
268,7192	24,89813	85,65508	20	20
269,23051	24,94863	85,6389	20	20
269,73657	24,99913	85,61767	20	20
270,25826	25,04964	85,59906	20	20
270,75658	25,10014	85,58122	20	20
271,27284	25,15064	85,55934	20	20
271,76275	25,20115	85,54571	20	20
272,25687	25,25165	85,52705	20	20
272,77538	25,30215	85,50848	20	20
273,28713	25,35266	85,48204	20	20
273,78812	25,40316	85,46627	20	20
274,28579	25,45366	85,45076	20	20
274,8039	25,50417	85,43469	20	20
275,31418	25,55467	85,41848	20	20
275,80756	25,60517	85,39966	20	20
276,32422	25,65568	85,38072	20	20
276,81108	25,70618	85,36723	20	20
277,34521	25,75668	85,34838	20	20
277,82883	25,80719	85,33274	20	20
278,3299	25,85769	85,31383	20	20
278,83485	25,90819	85,29283	20	20
279,3442	25,9587	85,27739	20	20
279,8726	26,0092	85,25423	20	20
280,36103	26,0597	85,23221	20	20
280,87718	26,11021	85,20523	20	20
281,36806	26,16071	85,19243	20	20
281,87951	26,21121	85,17706	20	20
282,37512	26,26172	85,15853	20	20
282,87782	26,31222	85,14482	20	20
283,38177	26,36272	85,11809	20	20
283,90253	26,41323	85,09881	20	20
284,40306	26,46373	85,08191	20	20
284,90904	26,51423	85,05936	20	20
285,41233	26,56474	85,0404	20	20
285,91162	26,61524	85,01702	20	20
286,4104	26,66574	84,99832	20	20
286,93459	26,71625	84,97293	20	20
287,42458	26,76675	84,9527	20	20
287,92273	26,81725	84,93629	20	20
288,4277	26,86776	84,91047	20	20
288,93695	26,91826	84,89327	20	20
289,43481	26,96876	84,87239	20	20
289,92476	27,01927	84,85549	20	20
290,43073	27,06977	84,82923	20	20
290,94292	27,12027	84,81064	20	20
291,45397	27,17078	84,78779	20	20
291,95643	27,22128	84,77085	20	20
292,45168	27,27178	84,74322	20	20
292,97006	27,32229	84,73146	20	20
293,46268	27,37279	84,70961	20	20
293,97283	27,42329	84,69004	20	20
294,47428	27,4738	84,66575	20	20
294,97721	27,5243	84,64849	20	20
295,49247	27,5748	84,62598	20	20
295,99026	27,62531	84,60656	20	20
296,49127	27,67581	84,58277	20	20
297,00323	27,72631	84,56745	20	20
297,50184	27,77681	84,55319	20	20
298,00925	27,82732	84,53734	20	20
298,51457	27,87782	84,52064	20	20
299,01893	27,92832	84,49588	20	20
299,51433	27,97883	84,47771	20	20
300,00967	28,02933	84,45264	20	20
300,51427	28,07983	84,41624	20	20
301,01942	28,13034	84,39169	20	20
301,51668	28,18084	84,36455	20	20
302,04729	28,23134	84,33417	20	20
302,5303	28,28185	84,30998	20	20
303,02849	28,33235	84,28374	20	20
303,53605	28,38285	84,2629	20	20
304,04813	28,43336	84,23466	20	20
304,56586	28,48386	84,20665	20	20
305,06713	28,53436	84,18653	20	20
305,56124	28,58487	84,15967	20	20
306,07401	28,63537	84,13503	20	20
306,58056	28,68587	84,11348	20	20
307,09607	28,73638	84,07873	20	20
307,58546	28,78688	84,05158	20	20
308,08952	28,83738	84,01992	20	20
308,59407	28,88789	84,00336	20	20
309,0991	28,93839	83,97795	20	20
309,61581	28,98889	83,94158	20	20
310,12042	29,0394	83,91775	20	20
310,61798	29,0899	83,88324	20	20
311,12162	29,1404	83,86531	20	20
311,61944	29,19091	83,83478	20	20
312,12562	29,24141	83,79876	20	20
312,62909	29,29191	83,77702	20	20
313,15034	29,34242	83,7547	20	20
313,64988	29,39292	83,72483	20	20
314,15209	29,44342	83,70106	20	20
314,66145	29,49393	83,67631	20	20
315,15676	29,54443	83,64307	20	20
315,67007	29,59493	83,61549	20	20
316,17587	29,64544	83,59134	20	20
316,68086	29,69594	83,55753	20	20
317,18684	29,74644	83,53258	20	20
317,6956	29,79695	83,50835	20	20
318,20329	29,84745	83,47342	20	20
318,70685	29,89795	83,4498	20	20
319,20694	29,94846	83,42552	20	20
319,70352	29,99896	83,39208	20	20
320,23049	30,04946	83,37055	20	20
320,73767	30,09997	83,34344	20	20
321,23087	30,15047	83,30529	20	20
321,73952	30,20097	83,27582	20	20
322,25497	30,25148	83,24252	20	20
322,75015	30,30198	83,21604	20	20
323,26887	30,35248	83,17677	20	20
323,76915	30,40299	83,15514	20	20
324,28935	30,45349	83,12202	20	20
324,78825	30,50399	83,08722	20	20
325,29249	30,5545	83,06122	20	20
325,80288	30,605	83,02791	20	20
326,30004	30,6555	83,00411	20	20
326,81396	30,70601	82,97289	20	20
327,31574	30,75651	82,93849	20	20
327,82886	30,80701	82,91182	20	20
328,33307	30,85752	82,88107	20	20
328,83847	30,90802	82,84789	20	20
329,34859	30,95852	82,82122	20	20
329,85048	31,00903	82,79126	20	20
330,36634	31,05953	82,76462	20	20
330,85133	31,11003	82,73984	20	20
331,35786	31,16054	82,71266	20	20
331,87431	31,21104	82,68744	20	20
332,37905	31,26154	82,65205	20	20
332,88365	31,31205	82,63429	20	20
333,38466	31,36255	82,60535	20	20
333,88175	31,41305	82,57131	20	20
334,38471	31,46356	82,5409	20	20
334,89611	31,51406	82,51134	20	20
335,40204	31,56456	82,47966	20	20
335,90499	31,61507	82,44814	20	20
336,41915	31,66557	82,41952	20	20
336,91238	31,71607	82,38119	20	20
337,41829	31,76658	82,3532	20	20
337,9218	31,81708	82,32182	20	20
338,44604	31,86758	82,29241	20	20
338,94499	31,91809	82,25759	20	20
339,44634	31,96859	82,22417	20	20
339,94376	32,01909	82,18835	20	20
340,45978	32,0696	82,15837	20	20
340,95509	32,1201	82,12704	20	20
341,47214	32,1706	82,09559	20	20
341,98551	32,22111	82,05902	20	20
342,48587	32,27161	82,02789	20	20
342,98723	32,32211	81,99002	20	20
343,49942	32,37262	81,95707	20	20
343,99685	32,42312	81,9271	20	20
344,5133	32,47362	81,88728	20	20
345,00989	32,52413	81,8503	20	20
345,50249	32,57463	81,81451	20	20
346,02443	32,62513	81,77426	20	20
346,52778	32,67564	81,74756	20	20
347,02678	32,72614	81,71011	20	20
347,53772	32,77664	81,68227	20	20
348,04785	32,82714	81,64548	20	20
348,54428	32,87765	81,60578	20	20
349,04508	32,92815	81,56997	20	20
349,5556	32,97865	81,54198	20	20
350,0692	33,02916	81,50131	20	20
350,5689	33,07966	81,47265	20	20
351,06849	33,13016	81,43359	20	20
351,57014	33,18067	81,39293	20	20
352,08223	33,23117	81,36953	20	20
352,58322	33,28167	81,33434	20	20
353,08833	33,33218	81,3044	20	20
353,59087	33,38268	81,26432	20	20
354,09361	33,43318	81,2296	20	20
354,59599	33,48369	81,18882	20	20
355,09516	33,53419	81,14293	20	20
355,60563	33,58469	81,09797	20	20
356,10226	33,6352	81,05288	20	20
356,61349	33,6857	81,02127	20	20
357,11564	33,7362	80,97464	20	20
357,62022	33,78671	80,93277	20	20
358,12615	33,83721	80,88349	20	20
358,61296	33,88771	80,84844	20	20
359,12733	33,93822	80,80331	20	20
359,63125	33,98872	80,759	20	20
360,13401	34,03922	80,72497	20	20
360,63931	34,08973	80,67594	20	20
361,13245	34,14023	80,63438	20	20
361,64857	34,19073	80,6028	20	20
362,15076	34,24124	80,5596	20	20
362,65206	34,29174	80,52618	20	20
363,15426	34,34224	80,48365	20	20
363,6683	34,39275	80,44323	20	20
364,1608	34,44325	80,40599	20	20
364,6663	34,49375	80,36387	20	20
365,17233	34,54426	80,32657	20	20
365,69164	34,59476	80,28045	20	20
366,18065	34,64526	80,25207	20	20
366,69484	34,69577	80,21536	20	20
367,18708	34,74627	80,17796	20	20
367,68813	34,79677	80,13974	20	20
368,1975	34,84728	80,10075	20	20
368,70557	34,89778	80,07427	20	20
369,20122	34,94828	80,03715	20	20
369,70308	34,99879	80,00106	20	20
370,20396	35,04929	79,96267	20	20
370,71117	35,09979	79,92628	20	20
371,22275	35,1503	79,87897	20	20
371,72079	35,2008	79,85038	20	20
372,22427	35,2513	79,81166	20	20
372,72939	35,30181	79,77012	20	20
373,24205	35,35231	79,73323	20	20
373,74976	35,40281	79,68657	20	20
374,25535	35,45332	79,64551	20	20
374,76582	35,50382	79,5949	20	20
375,26356	35,55432	79,5505	20	20
375,7682	35,60483	79,51574	20	20
376,26847	35,65533	79,47147	20	20
376,77641	35,70583	79,42855	20	20
377,29154	35,75634	79,38585	20	20
377,78203	35,80684	79,34215	20	20
378,29252	35,85734	79,30827	20	20
378,80181	35,90785	79,27281	20	20
379,29266	35,95835	79,23305	20	20
379,79957	36,00885	79,19324	20	20
380,30656	36,05936	79,15928	20	20
380,81459	36,10986	79,12123	20	20
381,32349	36,16036	79,07535	20	20
381,81991	36,21087	79,0447	20	20
382,32423	36,26137	79,0025	20	20
382,83505	36,31187	78,95653	20	20
383,34835	36,36238	78,90981	20	20
383,84126	36,41288	78,87489	20	20
384,34872	36,46338	78,83444	20	20
384,85358	36,51389	78,79661	20	20
385,35979	36,56439	78,76209	20	20
385,87409	36,61489	78,72251	20	20
386,36987	36,6654	78,67905	20	20
386,87155	36,7159	78,64551	20	20
387,38293	36,7664	78,60607	20	20
387,88281	36,81691	78,56323	20	20
388,37657	36,86741	78,52954	20	20
388,91066	36,91791	78,48731	20	20
389,4017	36,96842	78,44629	20	20
389,91261	37,01892	78,40477	20	20
390,41994	37,06942	78,36697	20	20
390,93329	37,11993	78,32457	20	20
391,42729	37,17043	78,28023	20	20
391,93889	37,22093	78,24227	20	20
392,43475	37,27144	78,19688	20	20
392,94619	37,32194	78,15864	20	20
393,44437	37,37244	78,12072	20	20
393,95263	37,42295	78,08241	20	20
394,4572	37,47345	78,03435	20	20
394,95971	37,52395	77,99419	20	20
395,47217	37,57446	77,94964	20	20
395,97135	37,62496	77,90747	20	20
396,46252	37,67546	77,86238	20	20
396,97733	37,72597	77,82024	20	20
397,4823	37,77647	77,78053	20	20
397,98377	37,82697	77,73885	20	20
398,47951	37,87748	77,69416	20	20
398,99083	37,92798	77,66185	20	20
399,49011	37,97848	77,62247	20	20
400,00814	38,02898	77,57869	20	20
400,50868	38,07949	77,54581	20	20
401,00892	38,12999	77,50609	20	20
401,50889	38,18049	77,46801	20	20
402,02193	38,231	77,42875	20	20
402,52207	38,2815	77,39391	20	20
403,03164	38,332	77,35407	20	20
403,53447	38,38251	77,31039	20	20
404,03919	38,43301	77,26552	20	20
404,53483	38,48351	77,23395	20	20
405,04347	38,53402	77,19561	20	20
405,55049	38,58452	77,15444	20	20
406,05641	38,63502	77,11181	20	20
406,54855	38,68553	77,0654	20	20
407,05702	38,73603	77,02698	20	20
407,55784	38,78653	76,98527	20	20
408,07904	38,83704	76,94155	20	20
408,57046	38,88754	76,89862	20	20
409,07525	38,93804	76,85833	20	20
409,58038	38,98855	76,82316	20	20
410,09503	39,03905	76,7789	20	20
410,59421	39,08955	76,73242	20	20
411,10259	39,14006	76,68512	20	20
411,61669	39,19056	76,64827	20	20
412,12058	39,24106	76,60504	20	20
412,61544	39,29157	76,55946	20	20
413,12727	39,34207	76,51901	20	20
413,62915	39,39257	76,47317	20	20
414,14173	39,44308	76,42446	20	20
414,64302	39,49358	76,38642	20	20
415,14582	39,54408	76,34399	20	20
415,65639	39,59459	76,30468	20	20
416,16	39,64509	76,26022	20	20
416,66529	39,69559	76,21875	20	20
417,17361	39,7461	76,17644	20	20
417,68393	39,7966	76,13869	20	20
418,17751	39,8471	76,10054	20	20
418,68586	39,89761	76,05784	20	20
419,17874	39,94811	76,01262	20	20
419,70244	39,99861	75,97419	20	20
420,20241	40,04912	75,93467	20	20
420,71693	40,09962	75,8932	20	20
421,21331	40,15012	75,85237	20	20
421,72844	40,20063	75,81072	20	20
422,23383	40,25113	75,76722	20	20
422,72823	40,30163	75,71805	20	20
423,24152	40,35214	75,68453	20	20
423,7516	40,40264	75,64218	20	20
424,24412	40,45314	75,59873	20	20
424,74349	40,50365	75,56635	20	20
425,26372	40,55415	75,52439	20	20
425,76312	40,60465	75,4804	20	20
426,27772	40,65516	75,44537	20	20
426,77095	40,70566	75,40926	20	20
427,2828	40,75616	75,37048	20	20
427,79646	40,80667	75,32568	20	20
428,29353	40,85717	75,28626	20	20
428,80081	40,90767	75,24369	20	20
429,29379	40,95818	75,20416	20	20
429,81296	41,00868	75,15897	20	20
430,31609	41,05918	75,11295	20	20
430,81013	41,10969	75,06543	20	20
431,31179	41,16019	75,02549	20	20
431,8276	41,21069	74,98123	20	20
432,33511	41,2612	74,93841	20	20
432,84374	41,3117	74,90315	20	20
433,33359	41,3622	74,86022	20	20
433,84581	41,41271	74,8291	20	20
434,35211	41,46321	74,78769	20	20
434,85391	41,51371	74,74236	20	20
435,36495	41,56422	74,70494	20	20
435,86236	41,61472	74,66	20	20
436,36387	41,66522	74,61611	20	20
436,87969	41,71573	74,572	20	20
437,38071	41,76623	74,53507	20	20
437,88042	41,81673	74,49225	20	20
438,38298	41,86724	74,44929	20	20
438,89243	41,91774	74,41483	20	20
439,3993	41,96824	74,37039	20	20
439,90573	42,01875	74,32477	20	20
440,40461	42,06925	74,28117	20	20
440,91246	42,11975	74,24364	20	20
441,40169	42,17026	74,20359	20	20
441,91569	42,22076	74,16345	20	20
442,42378	42,27126	74,12361	20	20
442,93418	42,32177	74,07549	20	20
443,42528	42,37227	74,03628	20	20
443,94233	42,42277	73,99309	20	20
444,44535	42,47328	73,94806	20	20
444,95095	42,52378	73,90643	20	20
445,47553	42,57428	73,86479	20	20
445,98044	42,62479	73,82327	20	20
446,4874	42,67529	73,77684	20	20
446,98979	42,72579	73,73415	20	20
447,49418	42,7763	73,68327	20	20
447,99993	42,8268	73,64034	20	20
448,51815	42,8773	73,59682	20	20
449,00172	42,92781	73,55368	20	20
449,51292	42,97831	73,51247	20	20
450,0165	43,02881	73,46831	20	20
450,52474	43,07931	73,42568	20	20
451,02216	43,12982	73,38715	20	20
451,54408	43,18032	73,34479	20	20
452,0318	43,23082	73,3008	20	20
452,5476	43,28133	73,25785	20	20
453,05925	43,33183	73,21451	20	20
453,55173	43,38233	73,1795	20	20
454,0588	43,43284	73,13595	20	20
454,55505	43,48334	73,09333	20	20
455,08236	43,53384	73,05313	20	20
455,56879	43,58435	73,00739	20	20
456,08213	43,63485	72,96145	20	20
456,57832	43,68535	72,92092	20	20
457,08709	43,73586	72,87217	20	20
457,58744	43,78636	72,83859	20	20
458,08711	43,83686	72,79925	20	20
458,58229	43,88737	72,7573	20	20
459,0874	43,93787	72,71741	20	20
459,58929	43,98837	72,68228	20	20
460,08791	44,03888	72,64513	20	20
460,59263	44,08938	72,60104	20	20
461,11203	44,13988	72,54937	20	20
461,61282	44,19039	72,51366	20	20
462,11247	44,24089	72,46775	20	20
462,6096	44,29139	72,4254	20	20
463,12838	44,3419	72,38145	20	20
463,61304	44,3924	72,33787	20	20
464,13106	44,4429	72,2888	20	20
464,63125	44,49341	72,24585	20	20
465,1358	44,54391	72,19846	20	20
465,63446	44,59441	72,15527	20	20
466,15041	44,64492	72,12255	20	20
466,64868	44,69542	72,08045	20	20
467,15793	44,74592	72,03016	20	20
467,66541	44,79643	71,99833	20	20
468,16829	44,84693	71,95203	20	20
468,66837	44,89743	71,9148	20	20
469,16901	44,94794	71,87193	20	20
469,67525	44,99844	71,82069	20	20
470,17658	45,04894	71,78248	20	20
470,68678	45,09945	71,74217	20	20
471,19649	45,14995	71,6982	20	20
471,69669	45,20045	71,65339	20	20
472,20104	45,25096	71,60909	20	20
472,71124	45,30146	71,56332	20	20
473,21658	45,35196	71,51615	20	20
473,71833	45,40247	71,47137	20	20
474,22693	45,45297	71,43692	20	20
474,73627	45,50347	71,39409	20	20
475,23626	45,55398	71,35183	20	20
475,747	45,60448	71,30328	20	20
476,24835	45,65498	71,26475	20	20
476,74817	45,70549	71,23446	20	20
477,25535	45,75599	71,18255	20	20
477,75409	45,80649	71,1396	20	20
478,26888	45,857	71,08992	20	20
478,76809	45,9075	71,04567	20	20
479,27674	45,958	70,99816	20	20
479,78199	46,00851	70,95259	20	20
480,27957	46,05901	70,90979	20	20
480,78685	46,10951	70,8683	20	20
481,31117	46,16002	70,82009	20	20
481,80256	46,21052	70,77297	20	20
482,30997	46,26102	70,72316	20	20
482,81895	46,31153	70,69137	20	20
483,31436	46,36203	70,65271	20	20
483,82148	46,41253	70,61256	20	20
484,32766	46,46304	70,57119	20	20
484,82438	46,51354	70,53085	20	20
485,33521	46,56404	70,48255	20	20
485,84477	46,61455	70,4376	20	20
486,35404	46,66505	70,39988	20	20
486,85173	46,71555	70,35751	20	20
487,35789	46,76606	70,3138	20	20
487,86282	46,81656	70,27543	20	20
488,3834	46,86706	70,22669	20	20
488,88255	46,91757	70,18363	20	20
489,38472	46,96807	70,13429	20	20
489,88972	47,01857	70,08767	20	20
490,4012	47,06908	70,04675	20	20
490,91094	47,11958	70,00812	20	20
491,41278	47,17008	69,95873	20	20
491,91251	47,22059	69,92162	20	20
492,41684	47,27109	69,88452	20	20
492,92679	47,32159	69,84004	20	20
493,43136	47,3721	69,80418	20	20
493,9432	47,4226	69,76382	20	20
494,43651	47,4731	69,7307	20	20
494,95601	47,52361	69,69409	20	20
495,45041	47,57411	69,65649	20	20
495,95368	47,62461	69,61767	20	20
496,45908	47,67512	69,57203	20	20
496,95783	47,72562	69,52627	20	20
497,47144	47,77612	69,48932	20	20
497,98082	47,82663	69,44801	20	20
498,48489	47,87713	69,40022	20	20
498,98446	47,92763	69,35037	20	20
499,48911	47,97814	69,30158	20	20
500,015	48,02864	69,25501	20	20
500,5017	48,07914	69,2066	20	20
501,00942	48,12964	69,15187	20	20
501,50855	48,18015	69,11173	20	20
502,01235	48,23065	69,06314	20	20
502,51558	48,28115	69,02156	20	20
503,02594	48,33166	68,98144	20	20
503,52274	48,38216	68,9341	20	20
504,02893	48,43266	68,89431	20	20
504,5341	48,48317	68,84407	20	20
505,04046	48,53367	68,80108	20	20
505,55027	48,58417	68,7587	20	20
506,04865	48,63468	68,71583	20	20
506,55573	48,68518	68,66599	20	20
507,05515	48,73568	68,64121	20	20
507,56848	48,78619	68,59736	20	20
508,06645	48,83669	68,5586	20	20
508,57079	48,88719	68,50508	20	20
509,0856	48,9377	68,46801	20	20
509,58879	48,9882	68,42761	20	20
510,08398	49,0387	68,38325	20	20
510,57872	49,08921	68,3412	20	20
511,08829	49,13971	68,29613	20	20
511,58413	49,19021	68,2579	20	20
512,08723	49,24072	68,22088	20	20
512,61047	49,29122	68,17738	20	20
513,10299	49,34172	68,13702	20	20
513,61401	49,39223	68,09847	20	20
514,10861	49,44273	68,05614	20	20
514,62688	49,49323	68,01383	20	20
515,12816	49,54374	67,96699	20	20
515,63181	49,59424	67,92637	20	20
516,13945	49,64474	67,89003	20	20
516,64202	49,69525	67,85262	20	20
517,15425	49,74575	67,80583	20	20
517,65178	49,79625	67,7696	20	20
518,15488	49,84676	67,72709	20	20
518,65931	49,89726	67,68593	20	20
519,16639	49,94776	67,64337	20	20
519,66855	49,99827	67,60968	20	20
520,16847	50,04877	67,56777	20	20
520,67441	50,09927	67,52627	20	20
521,17374	50,14978	67,48527	20	20
521,67792	50,20028	67,44701	20	20
522,19061	50,25078	67,40613	20	20
522,68681	50,30129	67,36396	20	20
523,20048	50,35179	67,31656	20	20
523,70483	50,40229	67,27221	20	20
524,20741	50,4528	67,21888	20	20
524,70321	50,5033	67,17987	20	20
525,21104	50,5538	67,1418	20	20
525,71934	50,60431	67,10815	20	20
526,22003	50,65481	67,06327	20	20
526,72821	50,70531	67,03498	20	20
527,23458	50,75582	66,99729	20	20
527,74078	50,80632	66,95442	20	20
528,24775	50,85682	66,91651	20	20
528,75773	50,90733	66,88023	20	20
529,26276	50,95783	66,83673	20	20
529,77637	51,00833	66,80124	20	20
530,27388	51,05884	66,75462	20	20
530,77656	51,10934	66,72858	20	20
531,27935	51,15984	66,69033	20	20
531,79044	51,21035	66,65312	20	20
532,30163	51,26085	66,61537	20	20
532,80959	51,31135	66,57447	20	20
533,31251	51,36186	66,53272	20	20
533,82047	51,41236	66,49369	20	20
534,33173	51,46286	66,44965	20	20
534,83745	51,51337	66,41437	20	20
535,34773	51,56387	66,37063	20	20
535,86191	51,61437	66,33002	20	20
536,37202	51,66488	66,29204	20	20
536,8742	51,71538	66,26026	20	20
537,38495	51,76588	66,21835	20	20
537,88568	51,81639	66,17261	20	20
538,39565	51,86689	66,13282	20	20
538,90196	51,91739	66,10421	20	20
539,39275	51,9679	66,06704	20	20
539,89505	52,0184	66,03793	20	20
540,40758	52,0689	65,99679	20	20
540,90908	52,11941	65,95955	20	20
541,41412	52,16991	65,91289	20	20
541,92253	52,22041	65,87979	20	20
542,42162	52,27092	65,8422	20	20
542,9293	52,32142	65,79589	20	20
543,43704	52,37192	65,76273	20	20
543,93554	52,42243	65,72282	20	20
544,43808	52,47293	65,67493	20	20
544,94422	52,52343	65,6416	20	20
545,4611	52,57394	65,60416	20	20
545,96239	52,62444	65,56506	20	20
546,47953	52,67494	65,53442	20	20
546,96849	52,72545	65,49647	20	20
547,46735	52,77595	65,46323	20	20
547,97161	52,82645	65,4288	20	20
548,47211	52,87696	65,39653	20	20
548,98843	52,92746	65,34944	20	20
549,47939	52,97796	65,31842	20	20
549,98176	53,02847	65,27805	20	20
550,49033	53,07897	65,24152	20	20
550,99501	53,12947	65,20468	20	20
551,49477	53,17997	65,16749	20	20
551,99383	53,23048	65,12453	20	20
552,49948	53,28098	65,07523	20	20
552,99838	53,33148	65,04221	20	20
553,49079	53,38199	65,00905	20	20
554,00933	53,43249	64,96651	20	20
554,50173	53,48299	64,93307	20	20
555,00904	53,5335	64,89973	20	20
555,50235	53,584	64,86225	20	20
556,0189	53,6345	64,82913	20	20
556,52618	53,68501	64,79253	20	20
557,0317	53,73551	64,75512	20	20
557,52423	53,78601	64,71122	20	20
558,03235	53,83652	64,68462	20	20
558,52733	53,88702	64,64849	20	20
559,03441	53,93752	64,61016	20	20
559,55112	53,98803	64,57891	20	20
560,05127	54,03853	64,53856	20	20
560,55229	54,08903	64,49774	20	20
561,05712	54,13954	64,46263	20	20
561,56442	54,19004	64,42455	20	20
562,07189	54,24054	64,38339	20	20
562,58085	54,29105	64,35364	20	20
563,08459	54,34155	64,32072	20	20
563,59152	54,39205	64,28876	20	20
564,09516	54,44256	64,24945	20	20
564,60685	54,49306	64,22185	20	20
565,11613	54,54356	64,18467	20	20
565,62484	54,59407	64,14443	20	20
566,12624	54,64457	64,11834	20	20
566,63892	54,69507	64,0792	20	20
567,15187	54,74558	64,05054	20	20
567,64982	54,79608	64,0156	20	20
568,16012	54,84658	63,98223	20	20
568,66617	54,89709	63,94665	20	20
569,17131	54,94759	63,90869	20	20
569,67384	54,99809	63,87743	20	20
570,1913	55,0486	63,8401	20	20
570,69004	55,0991	63,79932	20	20
571,194	55,1496	63,76938	20	20
571,70001	55,20011	63,73785	20	20
572,21673	55,25061	63,70563	20	20
572,71449	55,30111	63,67252	20	20
573,21677	55,35162	63,64319	20	20
573,73957	55,40212	63,60683	20	20
574,22394	55,45262	63,57342	20	20
574,73663	55,50313	63,54179	20	20
575,24943	55,55363	63,50028	20	20
575,74546	55,60413	63,47331	20	20
576,25177	55,65464	63,43565	20	20
576,75928	55,70514	63,41265	20	20
577,27781	55,75564	63,36991	20	20
577,77143	55,80615	63,34675	20	20
578,28145	55,85665	63,3034	20	20
578,79771	55,90715	63,27797	20	20
579,2911	55,95766	63,24252	20	20
579,79623	56,00816	63,2154	20	20
580,30822	56,05866	63,17985	20	20
580,81904	56,10917	63,15926	20	20
581,32263	56,15967	63,12705	20	20
581,82467	56,21017	63,09313	20	20
582,32333	56,26068	63,06105	20	20
582,83256	56,31118	63,02276	20	20
583,33773	56,36168	62,99588	20	20
583,84314	56,41219	62,96986	20	20
584,33495	56,46269	62,93948	20	20
584,86021	56,51319	62,90075	20	20
585,35649	56,5637	62,8805	20	20
585,86634	56,6142	62,84712	20	20
586,37259	56,6647	62,81819	20	20
586,87445	56,71521	62,78613	20	20
587,37859	56,76571	62,75845	20	20
587,88271	56,81621	62,72556	20	20
588,39449	56,86672	62,69182	20	20
588,89723	56,91722	62,66249	20	20
589,40591	56,96772	62,62438	20	20
589,91402	57,01823	62,60135	20	20
590,42498	57,06873	62,57428	20	20
590,93493	57,11923	62,54098	20	20
591,44433	57,16974	62,51162	20	20
591,93853	57,22024	62,48217	20	20
592,43979	57,27074	62,46152	20	20
592,94086	57,32125	62,43056	20	20
593,4559	57,37175	62,39707	20	20
593,97199	57,42225	62,3704	20	20
594,47254	57,47276	62,33882	20	20
594,97625	57,52326	62,31218	20	20
595,48398	57,57376	62,2791	20	20
595,98935	57,62427	62,25196	20	20
596,49004	57,67477	62,21791	20	20
596,99124	57,72527	62,18534	20	20
597,50791	57,77578	62,15947	20	20
598,00647	57,82628	62,12672	20	20
598,49994	57,87678	62,09071	20	20
599,00065	57,92729	62,05687	20	20
599,50756	57,97779	62,02829	20	20
600,00429	58,02829	62,00581	20	20
600,52461	58,0788	61,96968	20	20
601,02455	58,1293	61,94387	20	20
601,52904	58,1798	61,92237	20	20
602,03027	58,2303	61,89121	20	20
602,53966	58,28081	61,86563	20	20
603,04195	58,33131	61,83216	20	20
603,53661	58,38181	61,80779	20	20
604,04747	58,43232	61,7776	20	20
604,55259	58,48282	61,74901	20	20
605,06834	58,53332	61,71837	20	20
605,56706	58,58383	61,69643	20	20
606,07554	58,63433	61,65905	20	20
606,58248	58,68483	61,63811	20	20
607,06994	58,73534	61,60846	20	20
607,59365	58,78584	61,57904	20	20
608,09096	58,83634	61,55225	20	20
608,59258	58,88685	61,52186	20	20
609,10976	58,93735	61,49901	20	20
609,60426	58,98785	61,46294	20	20
610,12123	59,03836	61,43633	20	20
610,61374	59,08886	61,40447	20	20
611,13894	59,13936	61,37875	20	20
611,62759	59,18987	61,34064	20	20
612,12647	59,24037	61,31943	20	20
612,65781	59,29087	61,28817	20	20
613,15915	59,34138	61,25437	20	20
613,66441	59,39188	61,23321	20	20
614,17306	59,44238	61,20667	20	20
614,67612	59,49289	61,17728	20	20
615,1761	59,54339	61,15119	20	20
615,6867	59,59389	61,11761	20	20
616,19796	59,6444	61,09343	20	20
616,68946	59,6949	61,06258	20	20
617,20072	59,7454	61,04106	20	20
617,70288	59,79591	61,01059	20	20
618,21618	59,84641	60,98674	20	20
618,72186	59,89691	60,96149	20	20
619,22417	59,94742	60,93415	20	20
619,72451	59,99792	60,90562	20	20
620,23997	60,04842	60,87556	20	20
620,746	60,09893	60,85246	20	20
621,24588	60,14943	60,82788	20	20
621,75833	60,19993	60,79997	20	20
622,24838	60,25044	60,77459	20	20
622,74138	60,30094	60,74174	20	20
623,26083	60,35144	60,72633	20	20
623,76131	60,40195	60,70653	20	20
624,2627	60,45245	60,67174	20	20
624,77872	60,50295	60,64758	20	20
625,27166	60,55346	60,62152	20	20
625,7781	60,60396	60,5926	20	20
626,29164	60,65446	60,56059	20	20
626,7821	60,70497	60,53275	20	20
627,29747	60,75547	60,49925	20	20
627,80069	60,80597	60,47501	20	20
628,30698	60,85648	60,44514	20	20
628,80822	60,90698	60,4239	20	20
629,31549	60,95748	60,40167	20	20
629,81761	61,00799	60,37024	20	20
630,32266	61,05849	60,34233	20	20
630,8347	61,10899	60,31272	20	20
631,33447	61,1595	60,29161	20	20
631,83599	61,21	60,26442	20	20
632,3462	61,2605	60,23981	20	20
632,83779	61,31101	60,21175	20	20
633,35316	61,36151	60,18341	20	20
633,85078	61,41201	60,15476	20	20
634,35273	61,46252	60,12643	20	20
634,86134	61,51302	60,10358	20	20
635,36917	61,56352	60,07686	20	20
635,88198	61,61403	60,04262	20	20
636,37801	61,66453	60,0242	20	20
636,88543	61,71503	59,99568	20	20
637,39829	61,76554	59,9693	20	20
637,89136	61,81604	59,94699	20	20
638,39997	61,86654	59,9179	20	20
638,90462	61,91705	59,8893	20	20
639,40594	61,96755	59,8571	20	20
639,90899	62,01805	59,83867	20	20
640,41867	62,06856	59,8118	20	20
640,92007	62,11906	59,77963	20	20
641,43755	62,16956	59,75923	20	20
641,94864	62,22007	59,73391	20	20
642,43903	62,27057	59,71682	20	20
642,95783	62,32107	59,69325	20	20
643,45446	62,37158	59,66413	20	20
643,95711	62,42208	59,63958	20	20
644,46412	62,47258	59,61903	20	20
644,97599	62,52309	59,58941	20	20
645,48762	62,57359	59,56427	20	20
645,99303	62,62409	59,54099	20	20
646,5034	62,6746	59,51492	20	20
647,01037	62,7251	59,48819	20	20
647,51465	62,7756	59,46886	20	20
648,01403	62,82611	59,43918	20	20
648,52371	62,87661	59,41328	20	20
649,02737	62,92711	59,39022	20	20
649,53766	62,97762	59,36171	20	20
650,04497	63,02812	59,33151	20	20
650,5411	63,07862	59,29896	20	20
651,04574	63,12913	59,27582	20	20
651,5624	63,17963	59,25315	20	20
652,05328	63,23013	59,22602	20	20
652,55492	63,28063	59,19736	20	20
653,0634	63,33114	59,16718	20	20
653,56986	63,38164	59,14205	20	20
654,08281	63,43214	59,1173	20	20
654,58799	63,48265	59,08909	20	20
655,09681	63,53315	59,06325	20	20
655,59625	63,58365	59,03834	20	20
656,10096	63,63416	59,00794	20	20
656,61375	63,68466	58,97423	20	20
657,11772	63,73516	58,95647	20	20
657,61732	63,78567	58,93004	20	20
658,13351	63,83617	58,89514	20	20
658,64504	63,88667	58,88162	20	20
659,15281	63,93718	58,85882	20	20
659,66588	63,98768	58,82894	20	20
660,17073	64,03818	58,81105	20	20
660,68811	64,08869	58,78253	20	20
661,18784	64,13919	58,76148	20	20
661,68983	64,18969	58,73585	20	20
662,20199	64,2402	58,70639	20	20
662,71285	64,2907	58,67539	20	20
663,21109	64,3412	58,65535	20	20
663,72688	64,39171	58,63032	20	20
664,22711	64,44221	58,6069	20	20
664,73589	64,49271	58,58309	20	20
665,2426	64,54322	58,55664	20	20
665,75716	64,59372	58,52995	20	20
666,25188	64,64422	58,51131	20	20
666,75618	64,69473	58,48195	20	20
667,2679	64,74523	58,45443	20	20
667,77469	64,79573	58,4239	20	20
668,26613	64,84624	58,41313	20	20
668,77356	64,89674	58,39734	20	20
669,28109	64,94724	58,37106	20	20
669,7907	64,99775	58,34319	20	20
670,2979	65,04825	58,30904	20	20
670,80046	65,09875	58,29005	20	20
671,30539	65,14926	58,26596	20	20
671,83151	65,19976	58,2381	20	20
672,33367	65,25026	58,21274	20	20
672,82611	65,30077	58,18106	20	20
673,3436	65,35127	58,15191	20	20
673,84909	65,40177	58,12992	20	20
674,35026	65,45228	58,10448	20	20
674,86545	65,50278	58,07255	20	20
675,36911	65,55328	58,03971	20	20
675,86437	65,60379	58,00866	20	20
676,37897	65,65429	57,97343	20	20
676,90039	65,70479	57,94955	20	20
677,4063	65,7553	57,91303	20	20
677,90936	65,8058	57,87392	20	20
678,42261	65,8563	57,83877	20	20
678,93467	65,90681	57,80157	20	20
679,43364	65,95731	57,75953	20	20
679,9492	66,00781	57,72192	20	20
680,45156	66,05832	57,68183	20	20
680,96038	66,10882	57,63412	20	20
681,46179	66,15932	57,60399	20	20
681,95835	66,20983	57,56496	20	20
682,46718	66,26033	57,52674	20	20
682,96619	66,31083	57,49806	20	20
683,45282	66,36134	57,46514	20	20
683,96004	66,41184	57,43453	20	20
684,44514	66,46234	57,41148	20	20
684,93126	66,51285	57,38949	20	20
685,43527	66,56335	57,37363	20	20
685,92022	66,61385	57,34665	20	20
686,41359	66,66436	57,34053	20	20
686,89147	66,71486	57,32648	20	20
687,38702	66,76536	57,31205	20	20
687,88351	66,81587	57,30239	20	20
688,38338	66,86637	57,29387	20	20
688,87662	66,91687	57,28335	20	20
689,36986	66,96738	57,27377	20	20
689,88013	67,01788	57,25896	20	20
690,35862	67,06838	57,2543	20	20
690,8696	67,11889	57,25182	20	20
691,37206	67,16939	57,24594	20	20
691,86991	67,21989	57,24	20	20
692,37287	67,2704	57,23661	20	20
692,88085	67,3209	57,23494	20	20
693,37321	67,3714	57,23148	20	20
693,88596	67,42191	57,22724	20	20
694,38804	67,47241	57,22283	20	20
694,906	67,52291	57,21699	20	20
695,39651	67,57342	57,21264	20	20
695,91189	67,62392	57,2061	20	20
696,41603	67,67442	57,1999	20	20
696,92034	67,72493	57,19343	20	20
697,44195	67,77543	57,18918	20	20
697,95519	67,82593	57,18411	20	20
698,47303	67,87644	57,17985	20	20
698,97574	67,92694	57,17553	20	20
699,47766	67,97744	57,17312	20	20
699,99244	68,02795	57,16967	20	20
700,49534	68,07845	57,16704	20	20
701,00604	68,12895	57,16617	20	20
701,51933	68,17946	57,16362	20	20
702,02856	68,22996	57,16193	20	20
702,54648	68,28046	57,15769	20	20
703,05825	68,33096	57,15351	20	20
703,56457	68,38147	57,15182	20	20
704,0847	68,43197	57,14925	20	20
704,58671	68,48247	57,14577	20	20
705,09315	68,53298	57,14153	20	20
705,59516	68,58348	57,13821	20	20
706,11194	68,63398	57,13558	20	20
706,63136	68,68449	57,13543	20	20
707,1328	68,73499	57,1359	20	20
707,64867	68,78549	57,13599	20	20
708,15225	68,836	57,13507	20	20
708,65282	68,8865	57,13434	20	20
709,17702	68,937	57,13265	20	20
709,67938	68,98751	57,13072	20	20
710,17514	69,03801	57,12997	20	20
710,69746	69,08851	57,12838	20	20
711,18824	69,13902	57,12671	20	20
711,70003	69,18952	57,12582	20	20
712,21825	69,24002	57,12331	20	20
712,71526	69,29053	57,11988	20	20
713,23008	69,34103	57,11824	20	20
713,72842	69,39153	57,1165	20	20
714,2476	69,44204	57,114	20	20
714,73209	69,49254	57,11137	20	20
715,2401	69,54304	57,1071	20	20
715,7466	69,59355	57,1037	20	20
716,24747	69,64405	57,10124	20	20
716,75082	69,69455	57,09728	20	20
717,25296	69,74506	57,09517	20	20
717,76094	69,79556	57,09559	20	20
718,25631	69,84606	57,09558	20	20
718,7499	69,89657	57,09384	20	20
719,26493	69,94707	57,09247	20	20
719,77212	69,99757	57,09212	20	20
720,26905	70,04808	57,08986	20	20
720,77285	70,09858	57,08813	20	20
721,26195	70,14908	57,0864	20	20
721,77475	70,19959	57,08388	20	20
722,27388	70,25009	57,08218	20	20
722,78207	70,30059	57,08297	20	20
723,28674	70,3511	57,08126	20	20
723,78434	70,4016	57,07878	20	20
724,2846	70,4521	57,0772	20	20
724,79011	70,50261	57,0761	20	20
725,29652	70,55311	57,07238	20	20
725,80217	70,60361	57,06592	20	20
726,29786	70,65412	57,06202	20	20
726,80514	70,70462	57,06003	20	20
727,31007	70,75512	57,05656	20	20
727,82383	70,80563	57,05659	20	20
728,31788	70,85613	57,05635	20	20
728,82141	70,90663	57,05699	20	20
729,31596	70,95714	57,05782	20	20
729,81513	71,00764	57,05776	20	20
730,32603	71,05814	57,05868	20	20
730,83283	71,10865	57,05876	20	20
731,33822	71,15915	57,05703	20	20
731,8325	71,20965	57,05617	20	20
732,34644	71,26016	57,05448	20	20
732,85463	71,31066	57,05361	20	20
733,34976	71,36116	57,05274	20	20
733,85334	71,41167	57,04932	20	20
734,35921	71,46217	57,04863	20	20
734,87673	71,51267	57,04881	20	20
735,36625	71,56318	57,0483	20	20
735,88171	71,61368	57,05018	20	20
736,39508	71,66418	57,05365	20	20
736,8877	71,71469	57,05464	20	20
737,39631	71,76519	57,05295	20	20
737,8981	71,81569	57,04721	20	20
738,40644	71,8662	57,04442	20	20
738,92064	71,9167	57,04357	20	20
739,42875	71,9672	57,04357	20	20
739,93641	72,01771	57,04356	20	20
740,44675	72,06821	57,04268	20	20
740,946	72,11871	57,04113	20	20
741,44958	72,16922	57,04024	20	20
741,95606	72,21972	57,03603	20	20
742,48042	72,27022	57,03263	20	20
742,97055	72,32073	57,0301	20	20
743,4811	72,37123	57,02765	20	20
744,00059	72,42173	57,02678	20	20
744,50062	72,47224	57,02678	20	20
745,01661	72,52274	57,02678	20	20
745,53413	72,57324	57,02678	20	20
746,02049	72,62375	57,02586	20	20
746,52978	72,67425	57,02188	20	20
747,03897	72,72475	57,01465	20	20
747,54254	72,77526	57,01122	20	20
748,06005	72,82576	57,00823	20	20
748,56374	72,87626	57,00528	20	20
749,07643	72,92677	57,00313	20	20
749,58589	72,97727	57,00411	20	20
750,09941	73,02777	57,00313	20	20
750,59968	73,07828	57,00238	20	20
751,10771	73,12878	57,00074	20	20
751,62	73,17928	56,99831	20	20
752,12285	73,22979	56,99573	20	20
752,63288	73,28029	56,99403	20	20
753,13411	73,33079	56,99147	20	20
753,63977	73,38129	56,9907	20	20
754,14605	73,4318	56,99069	20	20
754,64973	73,4823	56,99153	20	20
755,16365	73,5328	56,99154	20	20
755,66645	73,58331	56,99237	20	20
756,16751	73,63381	56,99236	20	20
756,66645	73,68431	56,99225	20	20
757,16975	73,73482	56,99196	20	20
757,68174	73,78532	56,9906	20	20
758,18383	73,83582	56,98977	20	20
758,6897	73,88633	56,98894	20	20
759,1941	73,93683	56,98825	20	20
759,69949	73,98733	56,98104	20	20
760,20555	74,03784	56,97728	20	20
760,71013	74,08834	56,97396	20	20
761,21473	74,13884	56,97144	20	20
761,7178	74,18935	56,96893	20	20
762,23155	74,23985	56,96718	20	20
762,73377	74,29035	56,96464	20	20
763,24011	74,34086	56,96465	20	20
763,74372	74,39136	56,9655	20	20
764,23184	74,44186	56,9655	20	20
764,75392	74,49237	56,96546	20	20
765,25697	74,54287	56,96857	20	20
765,7567	74,59337	56,97245	20	20
766,26248	74,64388	56,97389	20	20
766,77826	74,69438	56,9743	20	20
767,27182	74,74488	56,97419	20	20
767,77631	74,79539	56,97489	20	20
768,28953	74,84589	56,97383	20	20
768,78587	74,89639	56,97392	20	20
769,28392	74,9469	56,97321	20	20
769,80316	74,9974	56,97304	20	20
770,30515	75,0479	56,97149	20	20
770,80271	75,09841	56,96561	20	20
771,31699	75,14891	56,96134	20	20
771,81112	75,19941	56,96049	20	20
772,3221	75,24992	56,95878	20	20
772,82003	75,30042	56,952	20	20
773,32534	75,35092	56,94794	20	20
773,83484	75,40143	56,94788	20	20
774,34226	75,45193	56,94692	20	20
774,84461	75,50243	56,94724	20	20
775,35112	75,55294	56,94859	20	20
775,85098	75,60344	56,94701	20	20
776,35197	75,65394	56,94451	20	20
776,85913	75,70445	56,94173	20	20
777,35857	75,75495	56,93867	20	20
777,87035	75,80545	56,93615	20	20
778,37586	75,85596	56,93437	20	20
778,87905	75,90646	56,93351	20	20
779,37727	75,95696	56,93195	20	20
779,88185	76,00747	56,92961	20	20
780,38306	76,05797	56,92538	20	20
780,88903	76,10847	56,92202	20	20
781,4036	76,15898	56,91937	20	20
781,89807	76,20948	56,91766	20	20
782,40283	76,25998	56,91765	20	20
782,90484	76,31049	56,91762	20	20
783,41062	76,36099	56,91596	20	20
783,91583	76,41149	56,90983	20	20
784,42822	76,462	56,90306	20	20
784,93386	76,5125	56,89556	20	20
785,44291	76,563	56,89308	20	20
785,93696	76,61351	56,89161	20	20
786,45359	76,66401	56,88911	20	20
786,95244	76,71451	56,88632	20	20
787,45887	76,76502	56,88399	20	20
787,96159	76,81552	56,88408	20	20
788,4674	76,86602	56,88408	20	20
788,97923	76,91653	56,88408	20	20
789,48628	76,96703	56,88408	20	20
789,99622	77,01753	56,88323	20	20
790,50184	77,06804	56,88317	20	20
791,00565	77,11854	56,88166	20	20
791,51024	77,16904	56,88552	20	20
792,01432	77,21955	56,89414	20	20
792,53053	77,27005	56,89751	20	20
793,02857	77,32055	56,90092	20	20
793,53412	77,37106	56,90424	20	20
794,03598	77,42156	56,90424	20	20
794,55241	77,47206	56,90324	20	20
795,05612	77,52257	56,9007	20	20
795,56097	77,57307	56,89559	20	20
796,05645	77,62357	56,89247	20	20
796,57126	77,67408	56,88987	20	20
797,07145	77,72458	56,88705	20	20
797,5731	77,77508	56,88283	20	20
798,08131	77,82559	56,88024	20	20
798,5966	77,87609	56,87679	20	20
799,10073	77,92659	56,87591	20	20
799,61258	77,9771	56,87495	20	20
800,1159	78,0276	56,87332	20	20
800,6166	78,0781	56,8716	20	20
801,12124	78,12861	56,86899	20	20
801,62246	78,17911	56,86812	20	20
802,13834	78,22961	56,86729	20	20
802,64619	78,28012	56,86729	20	20
803,14136	78,33062	56,86729	20	20
803,6459	78,38112	56,86729	20	20
804,14968	78,43162	56,86729	20	20
804,6586	78,48213	56,86729	20	20
805,18045	78,53263	56,86729	20	20
805,67538	78,58313	56,86635	20	20
806,18058	78,63364	56,86532	20	20
806,68107	78,68414	56,86403	20	20
807,1873	78,73464	56,86214	20	20
807,70317	78,78515	56,86097	20	20
808,20169	78,83565	56,8594	20	20
808,70707	78,88615	56,85077	20	20
809,21849	78,93666	56,8465	20	20
809,71751	78,98716	56,8441	20	20
810,21483	79,03766	56,84129	20	20
810,71931	79,08817	56,83804	20	20
811,22461	79,13867	56,83298	20	20
811,72583	79,18917	56,82877	20	20
812,22962	79,23968	56,82032	20	20
812,7277	79,29018	56,81523	20	20
813,24038	79,34068	56,81269	20	20
813,74835	79,39119	56,81275	20	20
814,24706	79,44169	56,81095	20	20
814,75356	79,49219	56,80734	20	20
815,24031	79,5427	56,80158	20	20
815,74532	79,5932	56,79728	20	20
816,25187	79,6437	56,79507	20	20
816,76223	79,69421	56,79216	20	20
817,26112	79,74471	56,78923	20	20
817,77117	79,79521	56,78738	20	20
818,28783	79,84572	56,7879	20	20
818,77856	79,89622	56,78618	20	20
819,28732	79,94672	56,78506	20	20
819,79679	79,99723	56,78272	20	20
820,3025	80,04773	56,78171	20	20
820,8043	80,09823	56,77925	20	20
821,31021	80,14874	56,77838	20	20
821,8192	80,19924	56,77334	20	20
822,31282	80,24974	56,77078	20	20
822,82837	80,30025	56,76739	20	20
823,32608	80,35075	56,77012	20	20
823,83709	80,40125	56,77923	20	20
824,34372	80,45176	56,78096	20	20
824,86341	80,50226	56,78267	20	20
825,35095	80,55276	56,78411	20	20
825,86671	80,60327	56,78595	20	20
826,36655	80,65377	56,78661	20	20
826,86982	80,70427	56,78814	20	20
827,38338	80,75478	56,78838	20	20
827,89462	80,80528	56,78867	20	20
828,39485	80,85578	56,78974	20	20
828,90511	80,90629	56,78592	20	20
829,40453	80,95679	56,78425	20	20
829,90365	81,00729	56,78271	20	20
830,42378	81,0578	56,77919	20	20
830,93344	81,1083	56,77582	20	20
831,43274	81,1588	56,77248	20	20
831,94021	81,20931	56,76837	20	20
832,44026	81,25981	56,76237	20	20
832,94531	81,31031	56,7573	20	20
833,45853	81,36082	56,75305	20	20
833,95745	81,41132	56,75138	20	20
834,46159	81,46182	56,75227	20	20
834,95799	81,51233	56,75312	20	20
835,46306	81,56283	56,75322	20	20
835,96405	81,61333	56,75281	20	20
836,46393	81,66384	56,75752	20	20
836,97781	81,71434	56,75659	20	20
837,4801	81,76484	56,75488	20	20
837,98572	81,81535	56,74934	20	20
838,49046	81,86585	56,74693	20	20
838,99603	81,91635	56,74478	20	20
839,50888	81,96686	56,7431	20	20
840,01325	82,01736	56,74133	20	20
840,52518	82,06786	56,7413	20	20
841,01851	82,11837	56,7431	20	20
841,52395	82,16887	56,74466	20	20
842,02655	82,21937	56,74557	20	20
842,53082	82,26988	56,74557	20	20
843,0436	82,32038	56,74557	20	20
843,5413	82,37088	56,74557	20	20
844,037	82,42139	56,74557	20	20
844,54661	82,47189	56,74557	20	20
845,05909	82,52239	56,74557	20	20
845,56577	82,5729	56,74557	20	20
846,06569	82,6234	56,74557	20	20
846,5758	82,6739	56,74465	20	20
847,08443	82,72441	56,74482	20	20
847,58426	82,77491	56,74388	20	20
848,08466	82,82541	56,7395	20	20
848,59941	82,87592	56,72944	20	20
849,10691	82,92642	56,72407	20	20
849,60991	82,97692	56,72068	20	20
850,1217	83,02743	56,71806	20	20
850,63064	83,07793	56,7156	20	20
851,13409	83,12843	56,71372	20	20
851,63265	83,17894	56,71205	20	20
852,14328	83,22944	56,7095	20	20
852,64445	83,27994	56,70696	20	20
853,15231	83,33045	56,70698	20	20
853,65821	83,38095	56,70694	20	20
854,16401	83,43145	56,7078	20	20
854,67102	83,48195	56,7078	20	20
855,17437	83,53246	56,70779	20	20
855,68649	83,58296	56,70694	20	20
856,18666	83,63346	56,70617	20	20
856,69189	83,68397	56,70435	20	20
857,19977	83,73447	56,70147	20	20
857,71029	83,78497	56,69826	20	20
858,21313	83,83548	56,69558	20	20
858,71204	83,88598	56,69352	20	20
859,23486	83,93648	56,69056	20	20
859,73066	83,98699	56,68799	20	20
860,23993	84,03749	56,68539	20	20
860,73451	84,08799	56,6811	20	20
861,24046	84,1385	56,67773	20	20
861,74538	84,189	56,67594	20	20
862,24574	84,2395	56,6726	20	20
862,75806	84,29001	56,66835	20	20
863,25543	84,34051	56,66748	20	20
863,7744	84,39101	56,66411	20	20
864,28505	84,44152	56,66077	20	20
864,7837	84,49202	56,65738	20	20
865,28242	84,54252	56,65578	20	20
865,78971	84,59303	56,6567	20	20
866,29804	84,64353	56,65744	20	20
866,79567	84,69403	56,65743	20	20
867,30397	84,74454	56,65743	20	20
867,80484	84,79504	56,65743	20	20
868,3017	84,84554	56,65743	20	20
868,80031	84,89605	56,65743	20	20
869,30454	84,94655	56,65603	20	20
869,81418	84,99705	56,65244	20	20
870,3071	85,04756	56,65075	20	20
870,81067	85,09806	56,64908	20	20
871,31832	85,14856	56,64739	20	20
871,80674	85,19907	56,64565	20	20
872,31476	85,24957	56,6448	20	20
872,81671	85,30007	56,64317	20	20
873,31652	85,35058	56,6423	20	20
873,82371	85,40108	56,64055	20	20
874,31963	85,45158	56,63809	20	20
874,82322	85,50209	56,63628	20	20
875,33031	85,55259	56,63466	20	20
875,8259	85,60309	56,63338	20	20
876,33462	85,6536	56,62489	20	20
876,82378	85,7041	56,62024	20	20
877,33712	85,7546	56,61593	20	20
877,8471	85,80511	56,61334	20	20
878,35198	85,85561	56,60953	20	20
878,85806	85,90611	56,60959	20	20
879,35643	85,95662	56,60947	20	20
879,86376	86,00712	56,60878	20	20
880,36848	86,05762	56,60695	20	20
880,87175	86,10813	56,6046	20	20
881,38093	86,15863	56,60207	20	20
881,89219	86,20913	56,59956	20	20
882,39849	86,25964	56,59785	20	20
882,91323	86,31014	56,60119	20	20
883,41441	86,36064	56,60459	20	20
883,92208	86,41115	56,6097	20	20
884,42482	86,46165	56,61124	20	20
884,93622	86,51215	56,60953	20	20
885,44792	86,56266	56,60703	20	20
885,963	86,61316	56,60516	20	20
886,46371	86,66366	56,60341	20	20
886,97541	86,71417	56,60199	20	20
887,473	86,76467	56,59986	20	20
887,9803	86,81517	56,59919	20	20
888,48828	86,86568	56,59776	20	20
889,00171	86,91618	56,5992	20	20
889,5107	86,96668	56,5986	20	20
890,01319	87,01719	56,59642	20	20
890,51584	87,06769	56,5938	20	20
891,03037	87,11819	56,59125	20	20
891,53708	87,1687	56,59029	20	20
892,04397	87,2192	56,59028	20	20
892,55297	87,2697	56,59028	20	20
893,05597	87,32021	56,59028	20	20
893,56646	87,37071	56,59028	20	20
894,07459	87,42121	56,59028	20	20
894,5741	87,47172	56,59016	20	20
895,07729	87,52222	56,58919	20	20
895,58455	87,57272	56,5808	20	20
896,08976	87,62323	56,57575	20	20
896,58605	87,67373	56,57549	20	20
897,09545	87,72423	56,57757	20	20
897,60832	87,77474	56,57011	20	20
898,1144	87,82524	56,56428	20	20
898,608	87,87574	56,55857	20	20
899,11386	87,92625	56,55738	20	20
899,61389	87,97675	56,55806	20	20
900,11261	88,02725	56,55705	20	20
900,61976	88,07776	56,55506	20	20
901,12505	88,12826	56,5534	20	20
901,62842	88,17876	56,55495	20	20
902,12703	88,22927	56,55587	20	20
902,64161	88,27977	56,55588	20	20
903,14372	88,33027	56,55589	20	20
903,6631	88,38078	56,55486	20	20
904,16494	88,43128	56,54556	20	20
904,66396	88,48178	56,53889	20	20
905,1833	88,53228	56,533	20	20
905,68129	88,58279	56,53154	20	20
906,18524	88,63329	56,53152	20	20
906,67812	88,68379	56,53152	20	20
907,18762	88,7343	56,53152	20	20
907,69193	88,7848	56,53152	20	20
908,19789	88,8353	56,53152	20	20
908,71671	88,88581	56,53152	20	20
909,2108	88,93631	56,53152	20	20
909,72053	88,98681	56,53151	20	20
910,22906	89,03732	56,53243	20	20
910,73726	89,08782	56,53133	20	20
911,23602	89,13832	56,53069	20	20
911,73735	89,18883	56,52981	20	20
912,25461	89,23933	56,52904	20	20
912,74828	89,28983	56,52653	20	20
913,26052	89,34034	56,52151	20	20
913,77589	89,39084	56,52653	20	20
914,27325	89,44134	56,52735	20	20
914,78528	89,49185	56,52635	20	20
915,28089	89,54235	56,5264	20	20
915,7848	89,59285	56,52495	20	20
916,28955	89,64336	56,52449	20	20
916,79282	89,69386	56,52397	20	20
917,30035	89,74436	56,52284	20	20
917,80624	89,79487	56,51976	20	20
918,31168	89,84537	56,51742	20	20
918,82331	89,89587	56,51715	20	20
919,33154	89,94638	56,51881	20	20
919,83259	89,99688	56,52122	20	20
920,3382	90,04738	56,52296	20	20
920,84831	90,09789	56,52487	20	20
921,34797	90,14839	56,52645	20	20
921,85647	90,19889	56,52813	20	20
922,35256	90,2494	56,52981	20	20
922,86305	90,2999	56,53152	20	20
923,37016	90,3504	56,53152	20	20
923,87287	90,40091	56,53152	20	20
924,38242	90,45141	56,5306	20	20
924,88135	90,50191	56,5315	20	20
925,38741	90,55242	56,52511	20	20
925,89635	90,60292	56,52046	20	20
926,39335	90,65342	56,51723	20	20
926,90545	90,70393	56,51442	20	20
927,41187	90,75443	56,51216	20	20
927,91018	90,80493	56,5122	20	20
928,42658	90,85544	56,5102	20	20
928,92082	90,90594	56,5093	20	20
929,42074	90,95644	56,51054	20	20
929,93211	91,00695	56,51138	20	20
930,447	91,05745	56,51226	20	20
930,94915	91,10795	56,51221	20	20
931,45094	91,15846	56,51219	20	20
931,95001	91,20896	56,51211	20	20
932,45772	91,25946	56,51137	20	20
932,96067	91,30997	56,51138	20	20
933,46559	91,36047	56,50967	20	20
933,97515	91,41097	56,50798	20	20
934,47518	91,46148	56,50464	20	20
934,99048	91,51198	56,50293	20	20
935,49377	91,56248	56,49692	20	20
935,98752	91,61299	56,4926	20	20
936,49412	91,66349	56,48927	20	20
936,99525	91,71399	56,4867	20	20
937,51041	91,7645	56,48455	20	20
938,00739	91,815	56,48827	20	20
938,51809	91,8655	56,49086	20	20
939,0151	91,91601	56,49123	20	20
939,52171	91,96651	56,49124	20	20
940,0314	92,01701	56,49071	20	20
940,52235	92,06752	56,49131	20	20
941,04123	92,11802	56,49281	20	20
941,54162	92,16852	56,49788	20	20
942,0462	92,21903	56,50033	20	20
942,55831	92,26953	56,49799	20	20
943,06032	92,32003	56,4887	20	20
943,56546	92,37054	56,47348	20	20
944,06639	92,42104	56,46935	20	20
944,57774	92,47154	56,46854	20	20
945,08322	92,52205	56,47031	20	20
945,59709	92,57255	56,47101	20	20
946,1063	92,62305	56,4728	20	20
946,61347	92,67356	56,47694	20	20
947,10914	92,72406	56,47822	20	20
947,61884	92,77456	56,47827	20	20
948,12402	92,82507	56,47819	20	20
948,62956	92,87557	56,47748	20	20
949,13344	92,92607	56,47699	20	20
949,63913	92,97658	56,47634	20	20
950,13584	93,02708	56,47678	20	20
950,65533	93,07758	56,476	20	20
951,16335	93,12809	56,47372	20	20
951,66329	93,17859	56,47194	20	20
952,1699	93,22909	56,46943	20	20
952,67698	93,2796	56,46772	20	20
953,18306	93,3301	56,46604	20	20
953,69266	93,3806	56,46517	20	20
954,19655	93,43111	56,46613	20	20
954,71189	93,48161	56,47027	20	20
955,20219	93,53211	56,4728	20	20
955,71808	93,58261	56,47379	20	20
956,21873	93,63312	56,47461	20	20
956,71913	93,68362	56,47286	20	20
957,23263	93,73412	56,47119	20	20
957,73467	93,78463	56,46951	20	20
958,2315	93,83513	56,46784	20	20
958,74169	93,88563	56,46616	20	20
959,25061	93,93614	56,46402	20	20
959,74734	93,98664	56,4597	20	20
960,25499	94,03714	56,45701	20	20
960,76604	94,08765	56,45517	20	20
961,25974	94,13815	56,4528	20	20
961,76331	94,18865	56,44761	20	20
962,27883	94,23916	56,4451	20	20
962,77754	94,28966	56,44587	20	20
963,28971	94,34016	56,44422	20	20
963,79063	94,39067	56,44074	20	20
964,29717	94,44117	56,43492	20	20
964,80168	94,49167	56,42896	20	20
965,30068	94,54218	56,42398	20	20
965,81032	94,59268	56,42349	20	20
966,30613	94,64318	56,43036	20	20
966,82432	94,69369	56,43136	20	20
967,32365	94,74419	56,4325	20	20
967,83254	94,79469	56,43511	20	20
968,33748	94,8452	56,43597	20	20
968,83632	94,8957	56,43677	20	20
969,34001	94,9462	56,43622	20	20
969,84882	94,99671	56,4336	20	20
970,34862	95,04721	56,43042	20	20
970,85966	95,09771	56,4251	20	20
971,35856	95,14822	56,42086	20	20
971,86819	95,19872	56,41828	20	20
972,37151	95,24922	56,4182	20	20
972,87232	95,29973	56,41738	20	20
973,38032	95,35023	56,41483	20	20
973,89334	95,40073	56,41401	20	20
974,38792	95,45124	56,41318	20	20
974,89086	95,50174	56,41325	20	20
975,39925	95,55224	56,41401	20	20
975,90739	95,60275	56,41326	20	20
976,40704	95,65325	56,41374	20	20
976,91698	95,70375	56,41202	20	20
977,41053	95,75426	56,40903	20	20
977,91727	95,80476	56,40678	20	20
978,42039	95,85526	56,4044	20	20
978,93524	95,90577	56,39797	20	20
979,43712	95,95627	56,39279	20	20
979,9432	96,00677	56,38886	20	20
980,44326	96,05728	56,38576	20	20
980,95172	96,10778	56,38209	20	20
981,45759	96,15828	56,37803	20	20
981,9579	96,20879	56,37612	20	20
982,46483	96,25929	56,37625	20	20
982,97107	96,30979	56,37707	20	20
983,47807	96,3603	56,37621	20	20
983,97759	96,4108	56,37451	20	20
984,49051	96,4613	56,37278	20	20
984,98911	96,51181	56,37027	20	20
985,49167	96,56231	56,36858	20	20
985,99317	96,61281	56,36784	20	20
986,49251	96,66332	56,36862	20	20
987,00159	96,71382	56,36963	20	20
987,50934	96,76432	56,36952	20	20
988,01463	96,81483	56,36818	20	20
988,51566	96,86533	56,37087	20	20
989,02064	96,91583	56,37494	20	20
989,53417	96,96634	56,37106	20	20
990,03684	97,01684	56,37026	20	20
990,54013	97,06734	56,36971	20	20
991,04253	97,11785	56,36866	20	20
991,55709	97,16835	56,36698	20	20
992,05308	97,21885	56,36535	20	20
992,55577	97,26936	56,36363	20	20
993,06268	97,31986	56,36364	20	20
993,57848	97,37036	56,36364	20	20
994,07519	97,42087	56,36364	20	20
994,57578	97,47137	56,36364	20	20
995,08453	97,52187	56,36367	20	20
995,59157	97,57238	56,36284	20	20
996,10374	97,62288	56,36174	20	20
996,60242	97,67338	56,36019	20	20
997,11741	97,72389	56,35951	20	20
997,61354	97,77439	56,35645	20	20
998,12357	97,82489	56,35432	20	20
998,62817	97,8754	56,35269	20	20
999,13529	97,9259	56,35457	20	20
999,63901	97,9764	56,35301	20	20
